30.002461930 115.0
30.007385786 122.0
30.012309642 115.0
30.017233498 130.0
30.022157354 107.0
30.027081210 104.0
30.032005066 113.0
30.036928922 114.0
30.041852778 108.0
30.046776634 103.0
30.051700490 137.0
30.056624346 135.0
30.061548202 142.0
30.066472058 120.0
30.071395914 111.0
30.076319770 134.0
30.081243626 114.0
30.086167482 142.0
30.091091338 116.0
30.096015194 139.0
30.100939050 122.0
30.105862906 101.0
30.110786762 113.0
30.115710618 116.0
30.120634474 146.0
30.125558330 117.0
30.130482186 128.0
30.135406042 127.0
30.140329898 114.0
30.145253754 127.0
30.150177610 126.0
30.155101466 127.0
30.160025322 141.0
30.164949178 124.0
30.169873034 124.0
30.174796890 123.0
30.179720746 113.0
30.184644602 132.0
30.189568458 130.0
30.194492314 147.0
30.199416170 102.0
30.204340026 126.0
30.209263882 115.0
30.214187738 120.0
30.219111594 126.0
30.224035450 113.0
30.228959306 118.0
30.233883162 124.0
30.238807018 130.0
30.243730874 107.0
30.248654730 127.0
30.253578587 104.0
30.258502443 116.0
30.263426299 114.0
30.268350155 123.0
30.273274011 128.0
30.278197867 99.0
30.283121723 96.0
30.288045579 112.0
30.292969435 127.0
30.297893291 116.0
30.302817147 111.0
30.307741003 100.0
30.312664859 117.0
30.317588715 93.0
30.322512571 126.0
30.327436427 120.0
30.332360283 121.0
30.337284139 136.0
30.342207995 122.0
30.347131851 135.0
30.352055707 107.0
30.356979563 135.0
30.361903419 110.0
30.366827275 121.0
30.371751131 133.0
30.376674987 127.0
30.381598843 122.0
30.386522699 100.0
30.391446555 120.0
30.396370411 116.0
30.401294267 124.0
30.406218123 119.0
30.411141979 123.0
30.416065835 124.0
30.420989691 112.0
30.425913547 116.0
30.430837403 146.0
30.435761259 108.0
30.440685115 126.0
30.445608971 123.0
30.450532827 105.0
30.455456683 121.0
30.460380539 129.0
30.465304395 121.0
30.470228251 135.0
30.475152107 139.0
30.480075963 122.0
30.484999819 138.0
30.489923675 125.0
30.494847531 128.0
30.499771387 131.0
30.504695243 93.0
30.509619099 109.0
30.514542955 109.0
30.519466811 115.0
30.524390667 118.0
30.529314523 114.0
30.534238379 124.0
30.539162235 131.0
30.544086091 125.0
30.549009947 126.0
30.553933803 116.0
30.558857659 124.0
30.563781515 118.0
30.568705371 100.0
30.573629227 110.0
30.578553083 118.0
30.583476939 123.0
30.588400795 137.0
30.593324651 120.0
30.598248507 111.0
30.603172363 130.0
30.608096219 124.0
30.613020075 111.0
30.617943931 130.0
30.622867787 128.0
30.627791643 127.0
30.632715499 122.0
30.637639355 99.0
30.642563211 126.0
30.647487067 127.0
30.652410923 112.0
30.657334779 131.0
30.662258635 99.0
30.667182491 117.0
30.672106347 124.0
30.677030203 120.0
30.681954059 123.0
30.686877915 116.0
30.691801771 124.0
30.696725627 133.0
30.701649483 115.0
30.706573339 107.0
30.711497195 133.0
30.716421051 128.0
30.721344907 130.0
30.726268763 120.0
30.731192619 133.0
30.736116475 118.0
30.741040331 116.0
30.745964187 121.0
30.750888043 133.0
30.755811900 115.0
30.760735756 104.0
30.765659612 128.0
30.770583468 120.0
30.775507324 106.0
30.780431180 129.0
30.785355036 114.0
30.790278892 123.0
30.795202748 117.0
30.800126604 136.0
30.805050460 133.0
30.809974316 119.0
30.814898172 123.0
30.819822028 140.0
30.824745884 94.0
30.829669740 119.0
30.834593596 132.0
30.839517452 113.0
30.844441308 111.0
30.849365164 121.0
30.854289020 117.0
30.859212876 119.0
30.864136732 115.0
30.869060588 121.0
30.873984444 117.0
30.878908300 120.0
30.883832156 134.0
30.888756012 94.0
30.893679868 128.0
30.898603724 109.0
30.903527580 138.0
30.908451436 117.0
30.913375292 132.0
30.918299148 124.0
30.923223004 122.0
30.928146860 152.0
30.933070716 125.0
30.937994572 131.0
30.942918428 128.0
30.947842284 132.0
30.952766140 120.0
30.957689996 116.0
30.962613852 128.0
30.967537708 123.0
30.972461564 123.0
30.977385420 110.0
30.982309276 115.0
30.987233132 121.0
30.992156988 103.0
30.997080844 124.0
31.002004700 108.0
31.006928556 107.0
31.011852412 135.0
31.016776268 101.0
31.021700124 114.0
31.026623980 112.0
31.031547836 117.0
31.036471692 116.0
31.041395548 130.0
31.046319404 124.0
31.051243260 121.0
31.056167116 134.0
31.061090972 114.0
31.066014828 127.0
31.070938684 108.0
31.075862540 120.0
31.080786396 105.0
31.085710252 124.0
31.090634108 112.0
31.095557964 131.0
31.100481820 118.0
31.105405676 117.0
31.110329532 154.0
31.115253388 114.0
31.120177244 141.0
31.125101100 125.0
31.130024956 108.0
31.134948812 122.0
31.139872668 101.0
31.144796524 112.0
31.149720380 112.0
31.154644236 120.0
31.159568092 114.0
31.164491948 115.0
31.169415804 111.0
31.174339660 141.0
31.179263516 109.0
31.184187372 101.0
31.189111228 127.0
31.194035084 126.0
31.198958940 120.0
31.203882796 125.0
31.208806652 130.0
31.213730508 142.0
31.218654364 136.0
31.223578220 110.0
31.228502076 110.0
31.233425932 136.0
31.238349788 119.0
31.243273644 124.0
31.248197500 122.0
31.253121357 132.0
31.258045213 127.0
31.262969069 139.0
31.267892925 129.0
31.272816781 127.0
31.277740637 125.0
31.282664493 118.0
31.287588349 103.0
31.292512205 130.0
31.297436061 119.0
31.302359917 119.0
31.307283773 132.0
31.312207629 122.0
31.317131485 112.0
31.322055341 132.0
31.326979197 118.0
31.331903053 125.0
31.336826909 121.0
31.341750765 117.0
31.346674621 105.0
31.351598477 97.0
31.356522333 116.0
31.361446189 111.0
31.366370045 143.0
31.371293901 124.0
31.376217757 125.0
31.381141613 136.0
31.386065469 123.0
31.390989325 110.0
31.395913181 126.0
31.400837037 113.0
31.405760893 105.0
31.410684749 126.0
31.415608605 114.0
31.420532461 126.0
31.425456317 117.0
31.430380173 117.0
31.435304029 117.0
31.440227885 116.0
31.445151741 141.0
31.450075597 123.0
31.454999453 120.0
31.459923309 114.0
31.464847165 107.0
31.469771021 127.0
31.474694877 124.0
31.479618733 134.0
31.484542589 121.0
31.489466445 108.0
31.494390301 114.0
31.499314157 137.0
31.504238013 122.0
31.509161869 141.0
31.514085725 117.0
31.519009581 131.0
31.523933437 106.0
31.528857293 120.0
31.533781149 129.0
31.538705005 119.0
31.543628861 118.0
31.548552717 110.0
31.553476573 120.0
31.558400429 126.0
31.563324285 118.0
31.568248141 129.0
31.573171997 122.0
31.578095853 112.0
31.583019709 118.0
31.587943565 125.0
31.592867421 134.0
31.597791277 132.0
31.602715133 142.0
31.607638989 135.0
31.612562845 115.0
31.617486701 115.0
31.622410557 140.0
31.627334413 123.0
31.632258269 97.0
31.637182125 123.0
31.642105981 116.0
31.647029837 125.0
31.651953693 125.0
31.656877549 111.0
31.661801405 108.0
31.666725261 121.0
31.671649117 113.0
31.676572973 115.0
31.681496829 120.0
31.686420685 118.0
31.691344541 127.0
31.696268397 118.0
31.701192253 142.0
31.706116109 108.0
31.711039965 119.0
31.715963821 104.0
31.720887677 127.0
31.725811533 121.0
31.730735389 103.0
31.735659245 111.0
31.740583101 121.0
31.745506957 124.0
31.750430813 104.0
31.755354670 103.0
31.760278526 108.0
31.765202382 128.0
31.770126238 117.0
31.775050094 120.0
31.779973950 101.0
31.784897806 113.0
31.789821662 126.0
31.794745518 113.0
31.799669374 112.0
31.804593230 137.0
31.809517086 118.0
31.814440942 155.0
31.819364798 122.0
31.824288654 118.0
31.829212510 109.0
31.834136366 118.0
31.839060222 130.0
31.843984078 122.0
31.848907934 114.0
31.853831790 131.0
31.858755646 112.0
31.863679502 133.0
31.868603358 125.0
31.873527214 108.0
31.878451070 134.0
31.883374926 111.0
31.888298782 122.0
31.893222638 117.0
31.898146494 108.0
31.903070350 97.0
31.907994206 123.0
31.912918062 117.0
31.917841918 126.0
31.922765774 134.0
31.927689630 115.0
31.932613486 117.0
31.937537342 141.0
31.942461198 121.0
31.947385054 109.0
31.952308910 127.0
31.957232766 147.0
31.962156622 125.0
31.967080478 108.0
31.972004334 111.0
31.976928190 145.0
31.981852046 125.0
31.986775902 113.0
31.991699758 124.0
31.996623614 131.0
32.001547470 105.0
32.006471326 123.0
32.011395182 130.0
32.016319038 115.0
32.021242894 99.0
32.026166750 115.0
32.031090606 102.0
32.036014462 120.0
32.040938318 110.0
32.045862174 117.0
32.050786030 108.0
32.055709886 119.0
32.060633742 127.0
32.065557598 96.0
32.070481454 127.0
32.075405310 108.0
32.080329166 139.0
32.085253022 119.0
32.090176878 143.0
32.095100734 100.0
32.100024590 121.0
32.104948446 118.0
32.109872302 107.0
32.114796158 152.0
32.119720014 103.0
32.124643870 125.0
32.129567726 120.0
32.134491582 112.0
32.139415438 106.0
32.144339294 118.0
32.149263150 113.0
32.154187006 119.0
32.159110862 115.0
32.164034718 111.0
32.168958574 140.0
32.173882430 121.0
32.178806286 123.0
32.183730142 116.0
32.188653998 111.0
32.193577854 117.0
32.198501710 112.0
32.203425566 137.0
32.208349422 116.0
32.213273278 141.0
32.218197134 131.0
32.223120990 126.0
32.228044846 109.0
32.232968702 127.0
32.237892558 131.0
32.242816414 135.0
32.247740270 116.0
32.252664127 135.0
32.257587983 126.0
32.262511839 114.0
32.267435695 132.0
32.272359551 130.0
32.277283407 137.0
32.282207263 147.0
32.287131119 133.0
32.292054975 142.0
32.296978831 132.0
32.301902687 132.0
32.306826543 124.0
32.311750399 134.0
32.316674255 125.0
32.321598111 145.0
32.326521967 120.0
32.331445823 137.0
32.336369679 99.0
32.341293535 139.0
32.346217391 123.0
32.351141247 126.0
32.356065103 140.0
32.360988959 127.0
32.365912815 121.0
32.370836671 127.0
32.375760527 144.0
32.380684383 125.0
32.385608239 129.0
32.390532095 121.0
32.395455951 133.0
32.400379807 106.0
32.405303663 113.0
32.410227519 136.0
32.415151375 122.0
32.420075231 127.0
32.424999087 144.0
32.429922943 155.0
32.434846799 126.0
32.439770655 133.0
32.444694511 111.0
32.449618367 143.0
32.454542223 130.0
32.459466079 115.0
32.464389935 122.0
32.469313791 114.0
32.474237647 147.0
32.479161503 120.0
32.484085359 128.0
32.489009215 121.0
32.493933071 131.0
32.498856927 113.0
32.503780783 132.0
32.508704639 113.0
32.513628495 137.0
32.518552351 113.0
32.523476207 116.0
32.528400063 110.0
32.533323919 126.0
32.538247775 120.0
32.543171631 138.0
32.548095487 104.0
32.553019343 126.0
32.557943199 122.0
32.562867055 121.0
32.567790911 121.0
32.572714767 118.0
32.577638623 124.0
32.582562479 127.0
32.587486335 125.0
32.592410191 119.0
32.597334047 138.0
32.602257903 122.0
32.607181759 119.0
32.612105615 129.0
32.617029471 122.0
32.621953327 110.0
32.626877183 122.0
32.631801039 117.0
32.636724895 123.0
32.641648751 106.0
32.646572607 127.0
32.651496463 122.0
32.656420319 121.0
32.661344175 117.0
32.666268031 130.0
32.671191887 127.0
32.676115743 126.0
32.681039599 113.0
32.685963455 122.0
32.690887311 125.0
32.695811167 122.0
32.700735023 126.0
32.705658879 107.0
32.710582735 141.0
32.715506591 128.0
32.720430447 116.0
32.725354303 125.0
32.730278159 113.0
32.735202015 128.0
32.740125871 135.0
32.745049727 115.0
32.749973583 115.0
32.754897440 133.0
32.759821296 122.0
32.764745152 112.0
32.769669008 121.0
32.774592864 145.0
32.779516720 100.0
32.784440576 106.0
32.789364432 121.0
32.794288288 137.0
32.799212144 117.0
32.804136000 118.0
32.809059856 126.0
32.813983712 110.0
32.818907568 128.0
32.823831424 121.0
32.828755280 119.0
32.833679136 141.0
32.838602992 115.0
32.843526848 120.0
32.848450704 150.0
32.853374560 112.0
32.858298416 114.0
32.863222272 120.0
32.868146128 113.0
32.873069984 97.0
32.877993840 131.0
32.882917696 117.0
32.887841552 119.0
32.892765408 114.0
32.897689264 132.0
32.902613120 112.0
32.907536976 117.0
32.912460832 123.0
32.917384688 110.0
32.922308544 120.0
32.927232400 119.0
32.932156256 126.0
32.937080112 114.0
32.942003968 120.0
32.946927824 110.0
32.951851680 128.0
32.956775536 148.0
32.961699392 137.0
32.966623248 121.0
32.971547104 115.0
32.976470960 105.0
32.981394816 137.0
32.986318672 132.0
32.991242528 116.0
32.996166384 108.0
33.001090240 100.0
33.006014096 122.0
33.010937952 98.0
33.015861808 125.0
33.020785664 123.0
33.025709520 132.0
33.030633376 113.0
33.035557232 104.0
33.040481088 104.0
33.045404944 119.0
33.050328800 106.0
33.055252656 89.0
33.060176512 126.0
33.065100368 135.0
33.070024224 138.0
33.074948080 114.0
33.079871936 127.0
33.084795792 139.0
33.089719648 135.0
33.094643504 126.0
33.099567360 111.0
33.104491216 119.0
33.109415072 113.0
33.114338928 144.0
33.119262784 134.0
33.124186640 127.0
33.129110496 140.0
33.134034352 111.0
33.138958208 114.0
33.143882064 134.0
33.148805920 115.0
33.153729776 130.0
33.158653632 124.0
33.163577488 117.0
33.168501344 136.0
33.173425200 147.0
33.178349056 115.0
33.183272912 117.0
33.188196768 133.0
33.193120624 102.0
33.198044480 119.0
33.202968336 116.0
33.207892192 117.0
33.212816048 128.0
33.217739904 125.0
33.222663760 121.0
33.227587616 103.0
33.232511472 128.0
33.237435328 140.0
33.242359184 117.0
33.247283040 128.0
33.252206897 132.0
33.257130753 115.0
33.262054609 137.0
33.266978465 128.0
33.271902321 124.0
33.276826177 133.0
33.281750033 114.0
33.286673889 121.0
33.291597745 128.0
33.296521601 112.0
33.301445457 114.0
33.306369313 131.0
33.311293169 119.0
33.316217025 108.0
33.321140881 150.0
33.326064737 115.0
33.330988593 138.0
33.335912449 144.0
33.340836305 129.0
33.345760161 112.0
33.350684017 117.0
33.355607873 128.0
33.360531729 121.0
33.365455585 136.0
33.370379441 116.0
33.375303297 106.0
33.380227153 118.0
33.385151009 121.0
33.390074865 137.0
33.394998721 137.0
33.399922577 131.0
33.404846433 117.0
33.409770289 148.0
33.414694145 121.0
33.419618001 106.0
33.424541857 121.0
33.429465713 130.0
33.434389569 114.0
33.439313425 123.0
33.444237281 126.0
33.449161137 133.0
33.454084993 141.0
33.459008849 112.0
33.463932705 122.0
33.468856561 108.0
33.473780417 130.0
33.478704273 111.0
33.483628129 132.0
33.488551985 130.0
33.493475841 118.0
33.498399697 122.0
33.503323553 135.0
33.508247409 114.0
33.513171265 119.0
33.518095121 117.0
33.523018977 119.0
33.527942833 115.0
33.532866689 106.0
33.537790545 126.0
33.542714401 158.0
33.547638257 115.0
33.552562113 127.0
33.557485969 116.0
33.562409825 119.0
33.567333681 132.0
33.572257537 133.0
33.577181393 114.0
33.582105249 149.0
33.587029105 140.0
33.591952961 114.0
33.596876817 136.0
33.601800673 147.0
33.606724529 140.0
33.611648385 141.0
33.616572241 128.0
33.621496097 122.0
33.626419953 128.0
33.631343809 137.0
33.636267665 134.0
33.641191521 125.0
33.646115377 148.0
33.651039233 135.0
33.655963089 149.0
33.660886945 128.0
33.665810801 169.0
33.670734657 129.0
33.675658513 130.0
33.680582369 126.0
33.685506225 146.0
33.690430081 142.0
33.695353937 129.0
33.700277793 118.0
33.705201649 141.0
33.710125505 125.0
33.715049361 119.0
33.719973217 137.0
33.724897073 127.0
33.729820929 123.0
33.734744785 137.0
33.739668641 127.0
33.744592497 126.0
33.749516353 144.0
33.754440210 130.0
33.759364066 125.0
33.764287922 150.0
33.769211778 115.0
33.774135634 143.0
33.779059490 126.0
33.783983346 154.0
33.788907202 149.0
33.793831058 151.0
33.798754914 148.0
33.803678770 128.0
33.808602626 159.0
33.813526482 140.0
33.818450338 150.0
33.823374194 146.0
33.828298050 153.0
33.833221906 146.0
33.838145762 155.0
33.843069618 183.0
33.847993474 202.0
33.852917330 215.0
33.857841186 200.0
33.862765042 287.0
33.867688898 310.0
33.872612754 372.0
33.877536610 441.0
33.882460466 570.0
33.887384322 707.0
33.892308178 936.0
33.897232034 1135.0
33.902155890 1240.0
33.907079746 1282.0
33.912003602 1376.0
33.916927458 1532.0
33.921851314 1404.0
33.926775170 1346.0
33.931699026 1231.0
33.936622882 1108.0
33.941546738 918.0
33.946470594 738.0
33.951394450 567.0
33.956318306 494.0
33.961242162 413.0
33.966166018 359.0
33.971089874 318.0
33.976013730 296.0
33.980937586 256.0
33.985861442 209.0
33.990785298 175.0
33.995709154 205.0
34.000633010 197.0
34.005556866 173.0
34.010480722 184.0
34.015404578 159.0
34.020328434 172.0
34.025252290 179.0
34.030176146 185.0
34.035100002 158.0
34.040023858 158.0
34.044947714 153.0
34.049871570 171.0
34.054795426 155.0
34.059719282 145.0
34.064643138 145.0
34.069566994 164.0
34.074490850 151.0
34.079414706 149.0
34.084338562 177.0
34.089262418 155.0
34.094186274 149.0
34.099110130 131.0
34.104033986 129.0
34.108957842 144.0
34.113881698 168.0
34.118805554 144.0
34.123729410 167.0
34.128653266 145.0
34.133577122 141.0
34.138500978 163.0
34.143424834 148.0
34.148348690 142.0
34.153272546 145.0
34.158196402 134.0
34.163120258 127.0
34.168044114 160.0
34.172967970 144.0
34.177891826 149.0
34.182815682 146.0
34.187739538 166.0
34.192663394 150.0
34.197587250 160.0
34.202511106 161.0
34.207434962 140.0
34.212358818 129.0
34.217282674 146.0
34.222206530 142.0
34.227130386 149.0
34.232054242 128.0
34.236978098 161.0
34.241901954 142.0
34.246825810 135.0
34.251749667 143.0
34.256673523 125.0
34.261597379 144.0
34.266521235 126.0
34.271445091 144.0
34.276368947 132.0
34.281292803 150.0
34.286216659 144.0
34.291140515 138.0
34.296064371 164.0
34.300988227 128.0
34.305912083 133.0
34.310835939 144.0
34.315759795 144.0
34.320683651 134.0
34.325607507 139.0
34.330531363 167.0
34.335455219 156.0
34.340379075 141.0
34.345302931 149.0
34.350226787 124.0
34.355150643 134.0
34.360074499 129.0
34.364998355 149.0
34.369922211 146.0
34.374846067 141.0
34.379769923 137.0
34.384693779 153.0
34.389617635 130.0
34.394541491 155.0
34.399465347 141.0
34.404389203 135.0
34.409313059 138.0
34.414236915 168.0
34.419160771 133.0
34.424084627 161.0
34.429008483 141.0
34.433932339 146.0
34.438856195 120.0
34.443780051 141.0
34.448703907 129.0
34.453627763 150.0
34.458551619 146.0
34.463475475 130.0
34.468399331 165.0
34.473323187 158.0
34.478247043 156.0
34.483170899 158.0
34.488094755 138.0
34.493018611 152.0
34.497942467 144.0
34.502866323 146.0
34.507790179 124.0
34.512714035 152.0
34.517637891 144.0
34.522561747 137.0
34.527485603 157.0
34.532409459 140.0
34.537333315 143.0
34.542257171 169.0
34.547181027 147.0
34.552104883 161.0
34.557028739 142.0
34.561952595 157.0
34.566876451 136.0
34.571800307 156.0
34.576724163 161.0
34.581648019 149.0
34.586571875 131.0
34.591495731 148.0
34.596419587 139.0
34.601343443 126.0
34.606267299 144.0
34.611191155 136.0
34.616115011 146.0
34.621038867 140.0
34.625962723 133.0
34.630886579 140.0
34.635810435 134.0
34.640734291 140.0
34.645658147 146.0
34.650582003 158.0
34.655505859 147.0
34.660429715 148.0
34.665353571 162.0
34.670277427 158.0
34.675201283 139.0
34.680125139 179.0
34.685048995 158.0
34.689972851 144.0
34.694896707 168.0
34.699820563 133.0
34.704744419 153.0
34.709668275 154.0
34.714592131 168.0
34.719515987 155.0
34.724439843 147.0
34.729363699 157.0
34.734287555 162.0
34.739211411 174.0
34.744135267 121.0
34.749059123 171.0
34.753982980 154.0
34.758906836 146.0
34.763830692 158.0
34.768754548 159.0
34.773678404 146.0
34.778602260 144.0
34.783526116 154.0
34.788449972 147.0
34.793373828 141.0
34.798297684 165.0
34.803221540 160.0
34.808145396 137.0
34.813069252 162.0
34.817993108 136.0
34.822916964 155.0
34.827840820 148.0
34.832764676 153.0
34.837688532 154.0
34.842612388 158.0
34.847536244 133.0
34.852460100 149.0
34.857383956 149.0
34.862307812 171.0
34.867231668 142.0
34.872155524 171.0
34.877079380 120.0
34.882003236 181.0
34.886927092 161.0
34.891850948 157.0
34.896774804 172.0
34.901698660 149.0
34.906622516 185.0
34.911546372 155.0
34.916470228 141.0
34.921394084 171.0
34.926317940 172.0
34.931241796 174.0
34.936165652 166.0
34.941089508 148.0
34.946013364 143.0
34.950937220 157.0
34.955861076 146.0
34.960784932 168.0
34.965708788 188.0
34.970632644 154.0
34.975556500 176.0
34.980480356 176.0
34.985404212 173.0
34.990328068 147.0
34.995251924 162.0
35.000175780 184.0
35.005099636 171.0
35.010023492 175.0
35.014947348 189.0
35.019871204 151.0
35.024795060 174.0
35.029718916 172.0
35.034642772 151.0
35.039566628 185.0
35.044490484 176.0
35.049414340 187.0
35.054338196 178.0
35.059262052 161.0
35.064185908 163.0
35.069109764 156.0
35.074033620 172.0
35.078957476 167.0
35.083881332 139.0
35.088805188 172.0
35.093729044 163.0
35.098652900 162.0
35.103576756 149.0
35.108500612 172.0
35.113424468 174.0
35.118348324 139.0
35.123272180 174.0
35.128196036 146.0
35.133119892 197.0
35.138043748 196.0
35.142967604 184.0
35.147891460 178.0
35.152815316 179.0
35.157739172 184.0
35.162663028 181.0
35.167586884 178.0
35.172510740 183.0
35.177434596 170.0
35.182358452 167.0
35.187282308 189.0
35.192206164 200.0
35.197130020 192.0
35.202053876 173.0
35.206977732 165.0
35.211901588 175.0
35.216825444 198.0
35.221749300 188.0
35.226673156 204.0
35.231597012 195.0
35.236520868 206.0
35.241444724 184.0
35.246368580 215.0
35.251292437 222.0
35.256216293 218.0
35.261140149 197.0
35.266064005 209.0
35.270987861 208.0
35.275911717 213.0
35.280835573 255.0
35.285759429 214.0
35.290683285 230.0
35.295607141 222.0
35.300530997 215.0
35.305454853 240.0
35.310378709 211.0
35.315302565 208.0
35.320226421 213.0
35.325150277 198.0
35.330074133 215.0
35.334997989 243.0
35.339921845 206.0
35.344845701 216.0
35.349769557 229.0
35.354693413 227.0
35.359617269 211.0
35.364541125 256.0
35.369464981 221.0
35.374388837 217.0
35.379312693 196.0
35.384236549 231.0
35.389160405 225.0
35.394084261 211.0
35.399008117 259.0
35.403931973 217.0
35.408855829 235.0
35.413779685 269.0
35.418703541 215.0
35.423627397 211.0
35.428551253 227.0
35.433475109 212.0
35.438398965 245.0
35.443322821 240.0
35.448246677 229.0
35.453170533 224.0
35.458094389 272.0
35.463018245 279.0
35.467942101 295.0
35.472865957 296.0
35.477789813 297.0
35.482713669 292.0
35.487637525 291.0
35.492561381 299.0
35.497485237 314.0
35.502409093 351.0
35.507332949 346.0
35.512256805 349.0
35.517180661 347.0
35.522104517 353.0
35.527028373 318.0
35.531952229 357.0
35.536876085 353.0
35.541799941 370.0
35.546723797 361.0
35.551647653 396.0
35.556571509 350.0
35.561495365 384.0
35.566419221 390.0
35.571343077 395.0
35.576266933 392.0
35.581190789 411.0
35.586114645 378.0
35.591038501 385.0
35.595962357 423.0
35.600886213 385.0
35.605810069 410.0
35.610733925 415.0
35.615657781 409.0
35.620581637 422.0
35.625505493 446.0
35.630429349 465.0
35.635353205 412.0
35.640277061 444.0
35.645200917 423.0
35.650124773 446.0
35.655048629 481.0
35.659972485 495.0
35.664896341 441.0
35.669820197 474.0
35.674744053 538.0
35.679667909 550.0
35.684591765 533.0
35.689515621 568.0
35.694439477 569.0
35.699363333 591.0
35.704287189 653.0
35.709211045 665.0
35.714134901 667.0
35.719058757 760.0
35.723982613 817.0
35.728906469 864.0
35.733830325 892.0
35.738754181 926.0
35.743678037 972.0
35.748601893 1019.0
35.753525750 1094.0
35.758449606 1218.0
35.763373462 1279.0
35.768297318 1336.0
35.773221174 1384.0
35.778145030 1452.0
35.783068886 1541.0
35.787992742 1546.0
35.792916598 1744.0
35.797840454 1855.0
35.802764310 1900.0
35.807688166 2046.0
35.812612022 2079.0
35.817535878 2062.0
35.822459734 2307.0
35.827383590 2358.0
35.832307446 2410.0
35.837231302 2575.0
35.842155158 2688.0
35.847079014 2789.0
35.852002870 2924.0
35.856926726 2940.0
35.861850582 3181.0
35.866774438 3203.0
35.871698294 3305.0
35.876622150 3341.0
35.881546006 3525.0
35.886469862 3502.0
35.891393718 3608.0
35.896317574 3798.0
35.901241430 3868.0
35.906165286 3795.0
35.911089142 3979.0
35.916012998 3985.0
35.920936854 3963.0
35.925860710 4163.0
35.930784566 4260.0
35.935708422 4332.0
35.940632278 4309.0
35.945556134 4312.0
35.950479990 4293.0
35.955403846 4278.0
35.960327702 4332.0
35.965251558 4377.0
35.970175414 4369.0
35.975099270 4448.0
35.980023126 4289.0
35.984946982 4319.0
35.989870838 4410.0
35.994794694 4254.0
35.999718550 4340.0
36.004642406 4193.0
36.009566262 4180.0
36.014490118 4207.0
36.019413974 4191.0
36.024337830 4080.0
36.029261686 3913.0
36.034185542 3904.0
36.039109398 3865.0
36.044033254 3663.0
36.048957110 3714.0
36.053880966 3683.0
36.058804822 3630.0
36.063728678 3477.0
36.068652534 3378.0
36.073576390 3162.0
36.078500246 3160.0
36.083424102 3054.0
36.088347958 2965.0
36.093271814 2736.0
36.098195670 2755.0
36.103119526 2611.0
36.108043382 2601.0
36.112967238 2507.0
36.117891094 2365.0
36.122814950 2240.0
36.127738806 2210.0
36.132662662 2086.0
36.137586518 1937.0
36.142510374 1804.0
36.147434230 1690.0
36.152358086 1679.0
36.157281942 1615.0
36.162205798 1528.0
36.167129654 1466.0
36.172053510 1403.0
36.176977366 1299.0
36.181901222 1266.0
36.186825078 1207.0
36.191748934 1123.0
36.196672790 1061.0
36.201596646 994.0
36.206520502 976.0
36.211444358 906.0
36.216368214 892.0
36.221292070 858.0
36.226215926 845.0
36.231139782 755.0
36.236063638 788.0
36.240987494 688.0
36.245911350 678.0
36.250835207 628.0
36.255759063 619.0
36.260682919 610.0
36.265606775 651.0
36.270530631 584.0
36.275454487 553.0
36.280378343 573.0
36.285302199 565.0
36.290226055 508.0
36.295149911 531.0
36.300073767 498.0
36.304997623 545.0
36.309921479 437.0
36.314845335 498.0
36.319769191 501.0
36.324693047 471.0
36.329616903 473.0
36.334540759 483.0
36.339464615 435.0
36.344388471 498.0
36.349312327 445.0
36.354236183 435.0
36.359160039 446.0
36.364083895 429.0
36.369007751 447.0
36.373931607 446.0
36.378855463 427.0
36.383779319 438.0
36.388703175 446.0
36.393627031 407.0
36.398550887 429.0
36.403474743 430.0
36.408398599 422.0
36.413322455 363.0
36.418246311 403.0
36.423170167 382.0
36.428094023 375.0
36.433017879 387.0
36.437941735 388.0
36.442865591 398.0
36.447789447 369.0
36.452713303 389.0
36.457637159 330.0
36.462561015 366.0
36.467484871 390.0
36.472408727 352.0
36.477332583 344.0
36.482256439 360.0
36.487180295 290.0
36.492104151 335.0
36.497028007 292.0
36.501951863 305.0
36.506875719 301.0
36.511799575 298.0
36.516723431 337.0
36.521647287 316.0
36.526571143 309.0
36.531494999 320.0
36.536418855 323.0
36.541342711 347.0
36.546266567 302.0
36.551190423 304.0
36.556114279 291.0
36.561038135 307.0
36.565961991 311.0
36.570885847 321.0
36.575809703 318.0
36.580733559 352.0
36.585657415 351.0
36.590581271 317.0
36.595505127 330.0
36.600428983 324.0
36.605352839 336.0
36.610276695 313.0
36.615200551 303.0
36.620124407 346.0
36.625048263 338.0
36.629972119 346.0
36.634895975 320.0
36.639819831 310.0
36.644743687 346.0
36.649667543 329.0
36.654591399 334.0
36.659515255 346.0
36.664439111 326.0
36.669362967 324.0
36.674286823 348.0
36.679210679 324.0
36.684134535 355.0
36.689058391 319.0
36.693982247 344.0
36.698906103 334.0
36.703829959 354.0
36.708753815 356.0
36.713677671 372.0
36.718601527 325.0
36.723525383 329.0
36.728449239 354.0
36.733373095 359.0
36.738296951 321.0
36.743220807 352.0
36.748144663 323.0
36.753068520 347.0
36.757992376 370.0
36.762916232 356.0
36.767840088 342.0
36.772763944 331.0
36.777687800 375.0
36.782611656 380.0
36.787535512 361.0
36.792459368 355.0
36.797383224 377.0
36.802307080 376.0
36.807230936 375.0
36.812154792 359.0
36.817078648 370.0
36.822002504 363.0
36.826926360 371.0
36.831850216 428.0
36.836774072 369.0
36.841697928 395.0
36.846621784 413.0
36.851545640 409.0
36.856469496 415.0
36.861393352 392.0
36.866317208 414.0
36.871241064 390.0
36.876164920 410.0
36.881088776 421.0
36.886012632 417.0
36.890936488 418.0
36.895860344 412.0
36.900784200 407.0
36.905708056 431.0
36.910631912 401.0
36.915555768 435.0
36.920479624 425.0
36.925403480 457.0
36.930327336 433.0
36.935251192 498.0
36.940175048 446.0
36.945098904 454.0
36.950022760 436.0
36.954946616 429.0
36.959870472 447.0
36.964794328 453.0
36.969718184 429.0
36.974642040 465.0
36.979565896 457.0
36.984489752 477.0
36.989413608 466.0
36.994337464 467.0
36.999261320 472.0
37.004185176 424.0
37.009109032 425.0
37.014032888 476.0
37.018956744 473.0
37.023880600 459.0
37.028804456 475.0
37.033728312 490.0
37.038652168 542.0
37.043576024 518.0
37.048499880 494.0
37.053423736 512.0
37.058347592 499.0
37.063271448 549.0
37.068195304 483.0
37.073119160 489.0
37.078043016 527.0
37.082966872 530.0
37.087890728 516.0
37.092814584 495.0
37.097738440 524.0
37.102662296 531.0
37.107586152 521.0
37.112510008 559.0
37.117433864 569.0
37.122357720 580.0
37.127281576 534.0
37.132205432 532.0
37.137129288 565.0
37.142053144 584.0
37.146977000 611.0
37.151900856 574.0
37.156824712 625.0
37.161748568 573.0
37.166672424 599.0
37.171596280 588.0
37.176520136 615.0
37.181443992 628.0
37.186367848 635.0
37.191291704 670.0
37.196215560 613.0
37.201139416 683.0
37.206063272 592.0
37.210987128 710.0
37.215910984 671.0
37.220834840 723.0
37.225758696 696.0
37.230682552 731.0
37.235606408 665.0
37.240530264 707.0
37.245454120 761.0
37.250377977 715.0
37.255301833 795.0
37.260225689 752.0
37.265149545 769.0
37.270073401 728.0
37.274997257 791.0
37.279921113 787.0
37.284844969 799.0
37.289768825 815.0
37.294692681 881.0
37.299616537 838.0
37.304540393 811.0
37.309464249 868.0
37.314388105 858.0
37.319311961 957.0
37.324235817 906.0
37.329159673 944.0
37.334083529 925.0
37.339007385 940.0
37.343931241 990.0
37.348855097 996.0
37.353778953 1025.0
37.358702809 1064.0
37.363626665 1042.0
37.368550521 1128.0
37.373474377 1118.0
37.378398233 1124.0
37.383322089 1192.0
37.388245945 1149.0
37.393169801 1210.0
37.398093657 1207.0
37.403017513 1256.0
37.407941369 1304.0
37.412865225 1306.0
37.417789081 1305.0
37.422712937 1323.0
37.427636793 1399.0
37.432560649 1576.0
37.437484505 1536.0
37.442408361 1800.0
37.447332217 1759.0
37.452256073 2063.0
37.457179929 2058.0
37.462103785 2353.0
37.467027641 2502.0
37.471951497 2825.0
37.476875353 3000.0
37.481799209 3273.0
37.486723065 3552.0
37.491646921 3923.0
37.496570777 4030.0
37.501494633 4096.0
37.506418489 4236.0
37.511342345 4365.0
37.516266201 4480.0
37.521190057 4412.0
37.526113913 4473.0
37.531037769 4328.0
37.535961625 4485.0
37.540885481 4555.0
37.545809337 4622.0
37.550733193 4491.0
37.555657049 4633.0
37.560580905 4811.0
37.565504761 5015.0
37.570428617 5327.0
37.575352473 5804.0
37.580276329 6104.0
37.585200185 7029.0
37.590124041 7355.0
37.595047897 9009.0
37.599971753 9556.0
37.604895609 11986.0
37.609819465 13317.0
37.614743321 17743.0
37.619667177 19854.0
37.624591033 29736.0
37.629514889 35243.0
37.634438745 63056.0
37.639362601 86283.0
37.644286457 157406.0
37.649210313 211943.0
37.654134169 255900.0
37.659058025 290044.0
37.663981881 301511.0
37.668905737 312840.0
37.673829593 307639.0
37.678753449 313109.0
37.683677305 295122.0
37.688601161 287994.0
37.693525017 226299.0
37.698448873 175981.0
37.703372729 118178.0
37.708296585 73603.0
37.713220441 57002.0
37.718144297 39898.0
37.723068153 39252.0
37.727992009 36314.0
37.732915865 50965.0
37.737839721 57800.0
37.742763577 97542.0
37.747687433 109129.0
37.752611290 141569.0
37.757535146 148404.0
37.762459002 159579.0
37.767382858 160354.0
37.772306714 160551.0
37.777230570 158586.0
37.782154426 149740.0
37.787078282 141535.0
37.792002138 106897.0
37.796925994 93101.0
37.801849850 52651.0
37.806773706 42509.0
37.811697562 24923.0
37.816621418 20040.0
37.821545274 14030.0
37.826469130 12169.0
37.831392986 9537.0
37.836316842 8624.0
37.841240698 7259.0
37.846164554 6511.0
37.851088410 5763.0
37.856012266 5370.0
37.860936122 4946.0
37.865859978 4544.0
37.870783834 4383.0
37.875707690 4049.0
37.880631546 3742.0
37.885555402 3560.0
37.890479258 3383.0
37.895403114 3099.0
37.900326970 2912.0
37.905250826 2903.0
37.910174682 2750.0
37.915098538 2585.0
37.920022394 2557.0
37.924946250 2451.0
37.929870106 2367.0
37.934793962 2257.0
37.939717818 2139.0
37.944641674 2101.0
37.949565530 1995.0
37.954489386 2014.0
37.959413242 2004.0
37.964337098 1847.0
37.969260954 1871.0
37.974184810 1791.0
37.979108666 1698.0
37.984032522 1629.0
37.988956378 1611.0
37.993880234 1544.0
37.998804090 1549.0
38.003727946 1505.0
38.008651802 1489.0
38.013575658 1428.0
38.018499514 1408.0
38.023423370 1398.0
38.028347226 1329.0
38.033271082 1256.0
38.038194938 1328.0
38.043118794 1263.0
38.048042650 1233.0
38.052966506 1224.0
38.057890362 1273.0
38.062814218 1223.0
38.067738074 1259.0
38.072661930 1200.0
38.077585786 1079.0
38.082509642 1144.0
38.087433498 1084.0
38.092357354 1062.0
38.097281210 1034.0
38.102205066 1009.0
38.107128922 1013.0
38.112052778 973.0
38.116976634 980.0
38.121900490 939.0
38.126824346 913.0
38.131748202 949.0
38.136672058 923.0
38.141595914 921.0
38.146519770 895.0
38.151443626 913.0
38.156367482 897.0
38.161291338 825.0
38.166215194 856.0
38.171139050 869.0
38.176062906 843.0
38.180986762 821.0
38.185910618 817.0
38.190834474 802.0
38.195758330 797.0
38.200682186 794.0
38.205606042 781.0
38.210529898 750.0
38.215453754 737.0
38.220377610 750.0
38.225301466 704.0
38.230225322 668.0
38.235149178 716.0
38.240073034 723.0
38.244996890 720.0
38.249920747 692.0
38.254844603 676.0
38.259768459 634.0
38.264692315 686.0
38.269616171 659.0
38.274540027 603.0
38.279463883 594.0
38.284387739 614.0
38.289311595 601.0
38.294235451 587.0
38.299159307 595.0
38.304083163 545.0
38.309007019 534.0
38.313930875 538.0
38.318854731 561.0
38.323778587 532.0
38.328702443 525.0
38.333626299 511.0
38.338550155 528.0
38.343474011 525.0
38.348397867 524.0
38.353321723 458.0
38.358245579 531.0
38.363169435 482.0
38.368093291 511.0
38.373017147 513.0
38.377941003 491.0
38.382864859 476.0
38.387788715 452.0
38.392712571 482.0
38.397636427 450.0
38.402560283 502.0
38.407484139 436.0
38.412407995 455.0
38.417331851 437.0
38.422255707 441.0
38.427179563 415.0
38.432103419 424.0
38.437027275 425.0
38.441951131 428.0
38.446874987 425.0
38.451798843 410.0
38.456722699 399.0
38.461646555 398.0
38.466570411 400.0
38.471494267 399.0
38.476418123 389.0
38.481341979 396.0
38.486265835 359.0
38.491189691 356.0
38.496113547 363.0
38.501037403 346.0
38.505961259 351.0
38.510885115 376.0
38.515808971 389.0
38.520732827 340.0
38.525656683 338.0
38.530580539 356.0
38.535504395 370.0
38.540428251 339.0
38.545352107 314.0
38.550275963 289.0
38.555199819 346.0
38.560123675 339.0
38.565047531 302.0
38.569971387 323.0
38.574895243 301.0
38.579819099 296.0
38.584742955 309.0
38.589666811 326.0
38.594590667 334.0
38.599514523 299.0
38.604438379 294.0
38.609362235 279.0
38.614286091 265.0
38.619209947 288.0
38.624133803 287.0
38.629057659 268.0
38.633981515 223.0
38.638905371 281.0
38.643829227 286.0
38.648753083 270.0
38.653676939 223.0
38.658600795 269.0
38.663524651 257.0
38.668448507 274.0
38.673372363 283.0
38.678296219 274.0
38.683220075 221.0
38.688143931 274.0
38.693067787 224.0
38.697991643 231.0
38.702915499 206.0
38.707839355 256.0
38.712763211 231.0
38.717687067 221.0
38.722610923 213.0
38.727534779 215.0
38.732458635 230.0
38.737382491 225.0
38.742306347 208.0
38.747230203 272.0
38.752154060 212.0
38.757077916 185.0
38.762001772 210.0
38.766925628 181.0
38.771849484 179.0
38.776773340 210.0
38.781697196 215.0
38.786621052 194.0
38.791544908 179.0
38.796468764 196.0
38.801392620 185.0
38.806316476 197.0
38.811240332 178.0
38.816164188 170.0
38.821088044 209.0
38.826011900 163.0
38.830935756 167.0
38.835859612 199.0
38.840783468 201.0
38.845707324 187.0
38.850631180 163.0
38.855555036 191.0
38.860478892 166.0
38.865402748 176.0
38.870326604 184.0
38.875250460 180.0
38.880174316 199.0
38.885098172 170.0
38.890022028 180.0
38.894945884 163.0
38.899869740 172.0
38.904793596 161.0
38.909717452 176.0
38.914641308 159.0
38.919565164 164.0
38.924489020 173.0
38.929412876 160.0
38.934336732 176.0
38.939260588 177.0
38.944184444 183.0
38.949108300 169.0
38.954032156 174.0
38.958956012 187.0
38.963879868 186.0
38.968803724 168.0
38.973727580 169.0
38.978651436 154.0
38.983575292 180.0
38.988499148 188.0
38.993423004 167.0
38.998346860 156.0
39.003270716 185.0
39.008194572 146.0
39.013118428 160.0
39.018042284 166.0
39.022966140 175.0
39.027889996 164.0
39.032813852 166.0
39.037737708 166.0
39.042661564 187.0
39.047585420 170.0
39.052509276 162.0
39.057433132 190.0
39.062356988 166.0
39.067280844 159.0
39.072204700 142.0
39.077128556 141.0
39.082052412 159.0
39.086976268 189.0
39.091900124 153.0
39.096823980 160.0
39.101747836 123.0
39.106671692 175.0
39.111595548 156.0
39.116519404 154.0
39.121443260 142.0
39.126367116 153.0
39.131290972 147.0
39.136214828 164.0
39.141138684 131.0
39.146062540 147.0
39.150986396 145.0
39.155910252 156.0
39.160834108 177.0
39.165757964 159.0
39.170681820 140.0
39.175605676 165.0
39.180529532 162.0
39.185453388 148.0
39.190377244 154.0
39.195301100 153.0
39.200224956 155.0
39.205148812 148.0
39.210072668 151.0
39.214996524 146.0
39.219920380 151.0
39.224844236 138.0
39.229768092 145.0
39.234691948 155.0
39.239615804 153.0
39.244539660 131.0
39.249463517 144.0
39.254387373 144.0
39.259311229 145.0
39.264235085 144.0
39.269158941 148.0
39.274082797 130.0
39.279006653 163.0
39.283930509 157.0
39.288854365 147.0
39.293778221 135.0
39.298702077 158.0
39.303625933 144.0
39.308549789 145.0
39.313473645 159.0
39.318397501 128.0
39.323321357 148.0
39.328245213 150.0
39.333169069 133.0
39.338092925 149.0
39.343016781 157.0
39.347940637 148.0
39.352864493 138.0
39.357788349 142.0
39.362712205 153.0
39.367636061 138.0
39.372559917 153.0
39.377483773 136.0
39.382407629 143.0
39.387331485 164.0
39.392255341 134.0
39.397179197 131.0
39.402103053 160.0
39.407026909 129.0
39.411950765 139.0
39.416874621 141.0
39.421798477 180.0
39.426722333 148.0
39.431646189 156.0
39.436570045 169.0
39.441493901 134.0
39.446417757 164.0
39.451341613 164.0
39.456265469 135.0
39.461189325 159.0
39.466113181 138.0
39.471037037 137.0
39.475960893 159.0
39.480884749 147.0
39.485808605 144.0
39.490732461 143.0
39.495656317 149.0
39.500580173 159.0
39.505504029 138.0
39.510427885 147.0
39.515351741 132.0
39.520275597 143.0
39.525199453 153.0
39.530123309 150.0
39.535047165 127.0
39.539971021 136.0
39.544894877 141.0
39.549818733 162.0
39.554742589 155.0
39.559666445 116.0
39.564590301 157.0
39.569514157 133.0
39.574438013 155.0
39.579361869 152.0
39.584285725 134.0
39.589209581 142.0
39.594133437 141.0
39.599057293 123.0
39.603981149 159.0
39.608905005 141.0
39.613828861 153.0
39.618752717 145.0
39.623676573 128.0
39.628600429 167.0
39.633524285 159.0
39.638448141 134.0
39.643371997 143.0
39.648295853 135.0
39.653219709 144.0
39.658143565 133.0
39.663067421 151.0
39.667991277 149.0
39.672915133 148.0
39.677838989 156.0
39.682762845 143.0
39.687686701 153.0
39.692610557 151.0
39.697534413 143.0
39.702458269 125.0
39.707382125 139.0
39.712305981 133.0
39.717229837 134.0
39.722153693 120.0
39.727077549 134.0
39.732001405 139.0
39.736925261 134.0
39.741849117 110.0
39.746772973 126.0
39.751696830 144.0
39.756620686 122.0
39.761544542 120.0
39.766468398 146.0
39.771392254 147.0
39.776316110 119.0
39.781239966 137.0
39.786163822 152.0
39.791087678 137.0
39.796011534 150.0
39.800935390 124.0
39.805859246 148.0
39.810783102 137.0
39.815706958 138.0
39.820630814 147.0
39.825554670 131.0
39.830478526 132.0
39.835402382 149.0
39.840326238 139.0
39.845250094 120.0
39.850173950 138.0
39.855097806 139.0
39.860021662 156.0
39.864945518 111.0
39.869869374 123.0
39.874793230 135.0
39.879717086 134.0
39.884640942 142.0
39.889564798 151.0
39.894488654 141.0
39.899412510 131.0
39.904336366 129.0
39.909260222 118.0
39.914184078 120.0
39.919107934 123.0
39.924031790 122.0
39.928955646 121.0
39.933879502 125.0
39.938803358 133.0
39.943727214 138.0
39.948651070 126.0
39.953574926 146.0
39.958498782 122.0
39.963422638 142.0
39.968346494 140.0
39.973270350 117.0
39.978194206 134.0
39.983118062 151.0
39.988041918 136.0
39.992965774 104.0
39.997889630 150.0
