55.001861930 122.0
55.006785786 152.0
55.011709642 136.0
55.016633498 125.0
55.021557354 133.0
55.026481210 136.0
55.031405066 139.0
55.036328922 132.0
55.041252778 141.0
55.046176634 133.0
55.051100490 118.0
55.056024346 151.0
55.060948202 125.0
55.065872058 140.0
55.070795914 112.0
55.075719770 141.0
55.080643626 139.0
55.085567482 119.0
55.090491338 141.0
55.095415194 132.0
55.100339050 129.0
55.105262906 132.0
55.110186762 118.0
55.115110618 124.0
55.120034474 135.0
55.124958330 128.0
55.129882186 146.0
55.134806042 125.0
55.139729898 122.0
55.144653754 144.0
55.149577610 146.0
55.154501466 134.0
55.159425322 147.0
55.164349178 108.0
55.169273034 125.0
55.174196890 116.0
55.179120746 129.0
55.184044602 149.0
55.188968459 107.0
55.193892315 128.0
55.198816171 128.0
55.203740027 97.0
55.208663883 145.0
55.213587739 133.0
55.218511595 128.0
55.223435451 148.0
55.228359307 125.0
55.233283163 114.0
55.238207019 127.0
55.243130875 117.0
55.248054731 128.0
55.252978587 137.0
55.257902443 117.0
55.262826299 121.0
55.267750155 121.0
55.272674011 121.0
55.277597867 124.0
55.282521723 131.0
55.287445579 127.0
55.292369435 100.0
55.297293291 138.0
55.302217147 132.0
55.307141003 140.0
55.312064859 139.0
55.316988715 140.0
55.321912571 119.0
55.326836427 134.0
55.331760283 142.0
55.336684139 125.0
55.341607995 123.0
55.346531851 135.0
55.351455707 149.0
55.356379563 136.0
55.361303419 151.0
55.366227275 127.0
55.371151131 128.0
55.376074987 153.0
55.380998843 139.0
55.385922699 125.0
55.390846555 135.0
55.395770411 121.0
55.400694267 123.0
55.405618123 126.0
55.410541979 142.0
55.415465835 123.0
55.420389691 147.0
55.425313547 140.0
55.430237403 121.0
55.435161259 145.0
55.440085115 125.0
55.445008971 152.0
55.449932827 137.0
55.454856683 129.0
55.459780539 105.0
55.464704395 131.0
55.469628251 123.0
55.474552107 133.0
55.479475963 119.0
55.484399819 118.0
55.489323675 141.0
55.494247531 141.0
55.499171387 139.0
55.504095243 139.0
55.509019099 157.0
55.513942955 133.0
55.518866811 148.0
55.523790667 126.0
55.528714523 134.0
55.533638379 141.0
55.538562235 135.0
55.543486091 133.0
55.548409947 126.0
55.553333803 148.0
55.558257660 138.0
55.563181516 141.0
55.568105372 119.0
55.573029228 121.0
55.577953084 132.0
55.582876940 124.0
55.587800796 113.0
55.592724652 134.0
55.597648508 144.0
55.602572364 131.0
55.607496220 132.0
55.612420076 135.0
55.617343932 131.0
55.622267788 147.0
55.627191644 118.0
55.632115500 124.0
55.637039356 119.0
55.641963212 101.0
55.646887068 152.0
55.651810924 129.0
55.656734780 139.0
55.661658636 129.0
55.666582492 144.0
55.671506348 112.0
55.676430204 126.0
55.681354060 141.0
55.686277916 125.0
55.691201772 127.0
55.696125628 126.0
55.701049484 117.0
55.705973340 148.0
55.710897196 107.0
55.715821052 138.0
55.720744908 119.0
55.725668764 149.0
55.730592620 113.0
55.735516476 124.0
55.740440332 152.0
55.745364188 124.0
55.750288044 122.0
55.755211900 121.0
55.760135756 133.0
55.765059612 126.0
55.769983468 109.0
55.774907324 122.0
55.779831180 117.0
55.784755036 108.0
55.789678892 141.0
55.794602748 117.0
55.799526604 140.0
55.804450460 127.0
55.809374316 132.0
55.814298172 114.0
55.819222028 140.0
55.824145884 116.0
55.829069740 116.0
55.833993596 122.0
55.838917452 148.0
55.843841308 128.0
55.848765164 132.0
55.853689020 143.0
55.858612876 123.0
55.863536732 129.0
55.868460588 144.0
55.873384444 121.0
55.878308300 120.0
55.883232156 154.0
55.888156012 142.0
55.893079868 134.0
55.898003724 141.0
55.902927580 134.0
55.907851436 123.0
55.912775292 125.0
55.917699148 106.0
55.922623004 121.0
55.927546860 129.0
55.932470717 119.0
55.937394573 128.0
55.942318429 133.0
55.947242285 111.0
55.952166141 134.0
55.957089997 133.0
55.962013853 137.0
55.966937709 134.0
55.971861565 112.0
55.976785421 129.0
55.981709277 134.0
55.986633133 138.0
55.991556989 148.0
55.996480845 117.0
56.001404701 133.0
56.006328557 118.0
56.011252413 134.0
56.016176269 124.0
56.021100125 124.0
56.026023981 119.0
56.030947837 122.0
56.035871693 123.0
56.040795549 132.0
56.045719405 152.0
56.050643261 106.0
56.055567117 125.0
56.060490973 141.0
56.065414829 129.0
56.070338685 108.0
56.075262541 139.0
56.080186397 137.0
56.085110253 142.0
56.090034109 132.0
56.094957965 119.0
56.099881821 123.0
56.104805677 133.0
56.109729533 113.0
56.114653389 127.0
56.119577245 108.0
56.124501101 129.0
56.129424957 126.0
56.134348813 127.0
56.139272669 132.0
56.144196525 138.0
56.149120381 131.0
56.154044237 141.0
56.158968093 131.0
56.163891949 132.0
56.168815805 140.0
56.173739661 142.0
56.178663517 111.0
56.183587373 134.0
56.188511229 123.0
56.193435085 140.0
56.198358941 103.0
56.203282797 120.0
56.208206653 138.0
56.213130509 117.0
56.218054365 120.0
56.222978221 147.0
56.227902077 122.0
56.232825933 137.0
56.237749789 126.0
56.242673645 115.0
56.247597501 109.0
56.252521357 140.0
56.257445213 110.0
56.262369069 118.0
56.267292925 141.0
56.272216781 122.0
56.277140637 121.0
56.282064493 141.0
56.286988349 148.0
56.291912205 129.0
56.296836061 108.0
56.301759918 137.0
56.306683774 132.0
56.311607630 156.0
56.316531486 131.0
56.321455342 115.0
56.326379198 133.0
56.331303054 136.0
56.336226910 114.0
56.341150766 125.0
56.346074622 120.0
56.350998478 142.0
56.355922334 126.0
56.360846190 144.0
56.365770046 121.0
56.370693902 115.0
56.375617758 106.0
56.380541614 126.0
56.385465470 123.0
56.390389326 141.0
56.395313182 134.0
56.400237038 133.0
56.405160894 122.0
56.410084750 120.0
56.415008606 127.0
56.419932462 129.0
56.424856318 118.0
56.429780174 121.0
56.434704030 103.0
56.439627886 118.0
56.444551742 115.0
56.449475598 114.0
56.454399454 117.0
56.459323310 129.0
56.464247166 129.0
56.469171022 133.0
56.474094878 122.0
56.479018734 119.0
56.483942590 153.0
56.488866446 114.0
56.493790302 119.0
56.498714158 124.0
56.503638014 111.0
56.508561870 122.0
56.513485726 129.0
56.518409582 116.0
56.523333438 130.0
56.528257294 137.0
56.533181150 118.0
56.538105006 114.0
56.543028862 136.0
56.547952718 116.0
56.552876574 144.0
56.557800430 131.0
56.562724286 150.0
56.567648142 124.0
56.572571998 124.0
56.577495854 128.0
56.582419710 135.0
56.587343566 127.0
56.592267422 141.0
56.597191278 145.0
56.602115134 124.0
56.607038990 114.0
56.611962846 142.0
56.616886702 139.0
56.621810558 121.0
56.626734414 116.0
56.631658270 113.0
56.636582126 125.0
56.641505982 119.0
56.646429838 147.0
56.651353694 149.0
56.656277550 129.0
56.661201406 129.0
56.666125262 137.0
56.671049119 128.0
56.675972975 151.0
56.680896831 132.0
56.685820687 100.0
56.690744543 114.0
56.695668399 127.0
56.700592255 141.0
56.705516111 117.0
56.710439967 121.0
56.715363823 132.0
56.720287679 129.0
56.725211535 157.0
56.730135391 129.0
56.735059247 140.0
56.739983103 132.0
56.744906959 126.0
56.749830815 116.0
56.754754671 110.0
56.759678527 130.0
56.764602383 147.0
56.769526239 153.0
56.774450095 124.0
56.779373951 122.0
56.784297807 141.0
56.789221663 130.0
56.794145519 131.0
56.799069375 120.0
56.803993231 134.0
56.808917087 134.0
56.813840943 118.0
56.818764799 132.0
56.823688655 122.0
56.828612511 131.0
56.833536367 122.0
56.838460223 124.0
56.843384079 114.0
56.848307935 135.0
56.853231791 147.0
56.858155647 140.0
56.863079503 117.0
56.868003359 134.0
56.872927215 127.0
56.877851071 117.0
56.882774927 139.0
56.887698783 126.0
56.892622639 133.0
56.897546495 130.0
56.902470351 134.0
56.907394207 136.0
56.912318063 137.0
56.917241919 145.0
56.922165775 140.0
56.927089631 151.0
56.932013487 137.0
56.936937343 141.0
56.941861199 151.0
56.946785055 131.0
56.951708911 146.0
56.956632767 120.0
56.961556623 126.0
56.966480479 144.0
56.971404335 112.0
56.976328191 120.0
56.981252047 135.0
56.986175903 132.0
56.991099759 127.0
56.996023615 124.0
57.000947471 118.0
57.005871327 128.0
57.010795183 121.0
57.015719039 136.0
57.020642895 118.0
57.025566751 115.0
57.030490607 119.0
57.035414463 119.0
57.040338320 117.0
57.045262176 134.0
57.050186032 128.0
57.055109888 111.0
57.060033744 116.0
57.064957600 126.0
57.069881456 114.0
57.074805312 127.0
57.079729168 109.0
57.084653024 147.0
57.089576880 138.0
57.094500736 130.0
57.099424592 155.0
57.104348448 127.0
57.109272304 118.0
57.114196160 110.0
57.119120016 101.0
57.124043872 128.0
57.128967728 134.0
57.133891584 124.0
57.138815440 153.0
57.143739296 133.0
57.148663152 126.0
57.153587008 127.0
57.158510864 126.0
57.163434720 161.0
57.168358576 130.0
57.173282432 118.0
57.178206288 118.0
57.183130144 132.0
57.188054000 138.0
57.192977856 144.0
57.197901712 122.0
57.202825568 125.0
57.207749424 127.0
57.212673280 143.0
57.217597136 157.0
57.222520992 127.0
57.227444848 139.0
57.232368704 131.0
57.237292560 119.0
57.242216416 144.0
57.247140272 108.0
57.252064128 122.0
57.256987984 133.0
57.261911840 121.0
57.266835696 141.0
57.271759552 146.0
57.276683408 141.0
57.281607264 125.0
57.286531120 128.0
57.291454976 141.0
57.296378832 123.0
57.301302688 137.0
57.306226544 125.0
57.311150400 146.0
57.316074256 138.0
57.320998112 129.0
57.325921968 131.0
57.330845824 125.0
57.335769680 129.0
57.340693536 124.0
57.345617392 149.0
57.350541248 138.0
57.355465104 128.0
57.360388960 138.0
57.365312816 123.0
57.370236672 143.0
57.375160528 144.0
57.380084384 140.0
57.385008240 130.0
57.389932096 115.0
57.394855952 130.0
57.399779808 147.0
57.404703664 131.0
57.409627521 117.0
57.414551377 127.0
57.419475233 131.0
57.424399089 138.0
57.429322945 147.0
57.434246801 122.0
57.439170657 132.0
57.444094513 130.0
57.449018369 146.0
57.453942225 124.0
57.458866081 114.0
57.463789937 135.0
57.468713793 142.0
57.473637649 142.0
57.478561505 128.0
57.483485361 143.0
57.488409217 139.0
57.493333073 132.0
57.498256929 154.0
57.503180785 163.0
57.508104641 156.0
57.513028497 157.0
57.517952353 139.0
57.522876209 151.0
57.527800065 136.0
57.532723921 128.0
57.537647777 152.0
57.542571633 132.0
57.547495489 140.0
57.552419345 128.0
57.557343201 130.0
57.562267057 158.0
57.567190913 147.0
57.572114769 141.0
57.577038625 138.0
57.581962481 150.0
57.586886337 140.0
57.591810193 141.0
57.596734049 138.0
57.601657905 126.0
57.606581761 133.0
57.611505617 141.0
57.616429473 119.0
57.621353329 144.0
57.626277185 143.0
57.631201041 160.0
57.636124897 144.0
57.641048753 129.0
57.645972609 136.0
57.650896465 150.0
57.655820321 146.0
57.660744177 115.0
57.665668033 128.0
57.670591889 137.0
57.675515745 135.0
57.680439601 137.0
57.685363457 164.0
57.690287313 146.0
57.695211169 130.0
57.700135025 144.0
57.705058881 150.0
57.709982737 112.0
57.714906593 161.0
57.719830449 141.0
57.724754305 154.0
57.729678161 140.0
57.734602017 153.0
57.739525873 148.0
57.744449729 144.0
57.749373585 150.0
57.754297441 151.0
57.759221297 130.0
57.764145153 136.0
57.769069009 138.0
57.773992865 144.0
57.778916721 128.0
57.783840578 145.0
57.788764434 135.0
57.793688290 145.0
57.798612146 124.0
57.803536002 139.0
57.808459858 132.0
57.813383714 125.0
57.818307570 138.0
57.823231426 109.0
57.828155282 150.0
57.833079138 136.0
57.838002994 138.0
57.842926850 129.0
57.847850706 141.0
57.852774562 127.0
57.857698418 136.0
57.862622274 135.0
57.867546130 146.0
57.872469986 136.0
57.877393842 136.0
57.882317698 137.0
57.887241554 127.0
57.892165410 118.0
57.897089266 135.0
57.902013122 136.0
57.906936978 128.0
57.911860834 115.0
57.916784690 144.0
57.921708546 110.0
57.926632402 145.0
57.931556258 131.0
57.936480114 133.0
57.941403970 123.0
57.946327826 144.0
57.951251682 145.0
57.956175538 138.0
57.961099394 116.0
57.966023250 117.0
57.970947106 129.0
57.975870962 137.0
57.980794818 139.0
57.985718674 129.0
57.990642530 137.0
57.995566386 141.0
58.000490242 112.0
58.005414098 124.0
58.010337954 127.0
58.015261810 131.0
58.020185666 129.0
58.025109522 127.0
58.030033378 120.0
58.034957234 108.0
58.039881090 135.0
58.044804946 127.0
58.049728802 134.0
58.054652658 131.0
58.059576514 131.0
58.064500370 142.0
58.069424226 132.0
58.074348082 128.0
58.079271938 133.0
58.084195794 151.0
58.089119650 141.0
58.094043506 136.0
58.098967362 146.0
58.103891218 124.0
58.108815074 142.0
58.113738930 134.0
58.118662786 133.0
58.123586642 127.0
58.128510498 138.0
58.133434354 147.0
58.138358210 131.0
58.143282066 110.0
58.148205922 126.0
58.153129779 129.0
58.158053635 113.0
58.162977491 134.0
58.167901347 151.0
58.172825203 117.0
58.177749059 127.0
58.182672915 136.0
58.187596771 120.0
58.192520627 143.0
58.197444483 153.0
58.202368339 125.0
58.207292195 104.0
58.212216051 124.0
58.217139907 133.0
58.222063763 146.0
58.226987619 119.0
58.231911475 125.0
58.236835331 124.0
58.241759187 117.0
58.246683043 146.0
58.251606899 125.0
58.256530755 139.0
58.261454611 130.0
58.266378467 108.0
58.271302323 133.0
58.276226179 149.0
58.281150035 127.0
58.286073891 146.0
58.290997747 114.0
58.295921603 133.0
58.300845459 137.0
58.305769315 122.0
58.310693171 137.0
58.315617027 140.0
58.320540883 117.0
58.325464739 134.0
58.330388595 132.0
58.335312451 134.0
58.340236307 116.0
58.345160163 134.0
58.350084019 110.0
58.355007875 146.0
58.359931731 124.0
58.364855587 125.0
58.369779443 131.0
58.374703299 123.0
58.379627155 115.0
58.384551011 115.0
58.389474867 138.0
58.394398723 106.0
58.399322579 154.0
58.404246435 131.0
58.409170291 116.0
58.414094147 133.0
58.419018003 128.0
58.423941859 149.0
58.428865715 150.0
58.433789571 119.0
58.438713427 164.0
58.443637283 119.0
58.448561139 135.0
58.453484995 124.0
58.458408851 130.0
58.463332707 146.0
58.468256563 142.0
58.473180419 109.0
58.478104275 136.0
58.483028131 130.0
58.487951987 116.0
58.492875843 141.0
58.497799699 140.0
58.502723555 124.0
58.507647411 132.0
58.512571267 133.0
58.517495123 132.0
58.522418980 140.0
58.527342836 130.0
58.532266692 136.0
58.537190548 119.0
58.542114404 142.0
58.547038260 133.0
58.551962116 134.0
58.556885972 130.0
58.561809828 122.0
58.566733684 137.0
58.571657540 140.0
58.576581396 123.0
58.581505252 128.0
58.586429108 133.0
58.591352964 126.0
58.596276820 140.0
58.601200676 135.0
58.606124532 127.0
58.611048388 145.0
58.615972244 117.0
58.620896100 140.0
58.625819956 150.0
58.630743812 121.0
58.635667668 120.0
58.640591524 139.0
58.645515380 122.0
58.650439236 142.0
58.655363092 130.0
58.660286948 122.0
58.665210804 141.0
58.670134660 148.0
58.675058516 122.0
58.679982372 132.0
58.684906228 125.0
58.689830084 148.0
58.694753940 148.0
58.699677796 119.0
58.704601652 121.0
58.709525508 138.0
58.714449364 123.0
58.719373220 151.0
58.724297076 146.0
58.729220932 112.0
58.734144788 125.0
58.739068644 133.0
58.743992500 142.0
58.748916356 145.0
58.753840212 122.0
58.758764068 135.0
58.763687924 107.0
58.768611780 129.0
58.773535636 131.0
58.778459492 130.0
58.783383348 119.0
58.788307204 134.0
58.793231060 136.0
58.798154916 129.0
58.803078772 145.0
58.808002628 117.0
58.812926484 125.0
58.817850340 116.0
58.822774196 126.0
58.827698052 153.0
58.832621908 123.0
58.837545764 119.0
58.842469620 130.0
58.847393476 133.0
58.852317332 133.0
58.857241188 136.0
58.862165044 103.0
58.867088900 147.0
58.872012756 153.0
58.876936612 121.0
58.881860468 128.0
58.886784324 146.0
58.891708181 129.0
58.896632037 139.0
58.901555893 149.0
58.906479749 141.0
58.911403605 133.0
58.916327461 136.0
58.921251317 144.0
58.926175173 136.0
58.931099029 128.0
58.936022885 122.0
58.940946741 116.0
58.945870597 148.0
58.950794453 146.0
58.955718309 140.0
58.960642165 143.0
58.965566021 137.0
58.970489877 134.0
58.975413733 129.0
58.980337589 135.0
58.985261445 148.0
58.990185301 125.0
58.995109157 144.0
59.000033013 114.0
59.004956869 129.0
59.009880725 141.0
59.014804581 111.0
59.019728437 149.0
59.024652293 135.0
59.029576149 112.0
59.034500005 117.0
59.039423861 124.0
59.044347717 148.0
59.049271573 140.0
59.054195429 137.0
59.059119285 125.0
59.064043141 131.0
59.068966997 126.0
59.073890853 146.0
59.078814709 123.0
59.083738565 112.0
59.088662421 146.0
59.093586277 124.0
59.098510133 140.0
59.103433989 140.0
59.108357845 127.0
59.113281701 135.0
59.118205557 141.0
59.123129413 117.0
59.128053269 122.0
59.132977125 120.0
59.137900981 154.0
59.142824837 125.0
59.147748693 126.0
59.152672549 146.0
59.157596405 126.0
59.162520261 152.0
59.167444117 138.0
59.172367973 128.0
59.177291829 126.0
59.182215685 131.0
59.187139541 120.0
59.192063397 117.0
59.196987253 117.0
59.201911109 126.0
59.206834965 121.0
59.211758821 140.0
59.216682677 119.0
59.221606533 147.0
59.226530389 122.0
59.231454245 130.0
59.236378101 128.0
59.241301957 129.0
59.246225813 131.0
59.251149669 143.0
59.256073525 141.0
59.260997382 122.0
59.265921238 132.0
59.270845094 151.0
59.275768950 114.0
59.280692806 132.0
59.285616662 108.0
59.290540518 120.0
59.295464374 140.0
59.300388230 122.0
59.305312086 124.0
59.310235942 133.0
59.315159798 120.0
59.320083654 118.0
59.325007510 125.0
59.329931366 143.0
59.334855222 127.0
59.339779078 136.0
59.344702934 142.0
59.349626790 118.0
59.354550646 117.0
59.359474502 116.0
59.364398358 131.0
59.369322214 110.0
59.374246070 122.0
59.379169926 117.0
59.384093782 123.0
59.389017638 124.0
59.393941494 132.0
59.398865350 128.0
59.403789206 144.0
59.408713062 123.0
59.413636918 146.0
59.418560774 146.0
59.423484630 121.0
59.428408486 113.0
59.433332342 122.0
59.438256198 139.0
59.443180054 116.0
59.448103910 133.0
59.453027766 130.0
59.457951622 98.0
59.462875478 149.0
59.467799334 139.0
59.472723190 119.0
59.477647046 121.0
59.482570902 114.0
59.487494758 125.0
59.492418614 105.0
59.497342470 142.0
59.502266326 124.0
59.507190182 134.0
59.512114038 146.0
59.517037894 126.0
59.521961750 117.0
59.526885606 135.0
59.531809462 125.0
59.536733318 127.0
59.541657174 117.0
59.546581030 128.0
59.551504886 122.0
59.556428742 125.0
59.561352598 143.0
59.566276454 126.0
59.571200310 136.0
59.576124166 120.0
59.581048022 144.0
59.585971878 132.0
59.590895734 113.0
59.595819590 131.0
59.600743446 126.0
59.605667302 124.0
59.610591158 123.0
59.615515014 138.0
59.620438870 131.0
59.625362726 121.0
59.630286582 146.0
59.635210439 124.0
59.640134295 140.0
59.645058151 111.0
59.649982007 131.0
59.654905863 140.0
59.659829719 145.0
59.664753575 117.0
59.669677431 130.0
59.674601287 122.0
59.679525143 141.0
59.684448999 151.0
59.689372855 135.0
59.694296711 121.0
59.699220567 135.0
59.704144423 128.0
59.709068279 142.0
59.713992135 130.0
59.718915991 136.0
59.723839847 126.0
59.728763703 127.0
59.733687559 144.0
59.738611415 122.0
59.743535271 117.0
59.748459127 131.0
59.753382983 135.0
59.758306839 148.0
59.763230695 129.0
59.768154551 130.0
59.773078407 146.0
59.778002263 120.0
59.782926119 140.0
59.787849975 130.0
59.792773831 123.0
59.797697687 136.0
59.802621543 127.0
59.807545399 146.0
59.812469255 139.0
59.817393111 143.0
59.822316967 141.0
59.827240823 147.0
59.832164679 161.0
59.837088535 122.0
59.842012391 119.0
59.846936247 129.0
59.851860103 136.0
59.856783959 126.0
59.861707815 132.0
59.866631671 134.0
59.871555527 153.0
59.876479383 127.0
59.881403239 135.0
59.886327095 143.0
59.891250951 132.0
59.896174807 145.0
59.901098663 127.0
59.906022519 122.0
59.910946375 136.0
59.915870231 122.0
59.920794087 137.0
59.925717943 142.0
59.930641799 130.0
59.935565655 112.0
59.940489511 139.0
59.945413367 152.0
59.950337223 141.0
59.955261079 115.0
59.960184935 146.0
59.965108791 129.0
59.970032647 149.0
59.974956503 110.0
59.979880359 135.0
59.984804215 145.0
59.989728071 143.0
59.994651927 148.0
59.999575783 116.0
60.004499640 136.0
60.009423496 121.0
60.014347352 126.0
60.019271208 137.0
60.024195064 128.0
60.029118920 130.0
60.034042776 161.0
60.038966632 153.0
60.043890488 143.0
60.048814344 140.0
60.053738200 137.0
60.058662056 128.0
60.063585912 119.0
60.068509768 140.0
60.073433624 124.0
60.078357480 127.0
60.083281336 128.0
60.088205192 139.0
60.093129048 123.0
60.098052904 138.0
60.102976760 158.0
60.107900616 124.0
60.112824472 125.0
60.117748328 151.0
60.122672184 139.0
60.127596040 136.0
60.132519896 137.0
60.137443752 135.0
60.142367608 108.0
60.147291464 133.0
60.152215320 123.0
60.157139176 116.0
60.162063032 121.0
60.166986888 121.0
60.171910744 111.0
60.176834600 138.0
60.181758456 134.0
60.186682312 143.0
60.191606168 145.0
60.196530024 135.0
60.201453880 135.0
60.206377736 156.0
60.211301592 121.0
60.216225448 149.0
60.221149304 135.0
60.226073160 115.0
60.230997016 132.0
60.235920872 136.0
60.240844728 137.0
60.245768584 151.0
60.250692440 148.0
60.255616296 119.0
60.260540152 131.0
60.265464008 144.0
60.270387864 147.0
60.275311720 149.0
60.280235576 158.0
60.285159432 152.0
60.290083288 133.0
60.295007144 138.0
60.299931000 148.0
60.304854856 152.0
60.309778712 160.0
60.314702568 154.0
60.319626424 121.0
60.324550280 146.0
60.329474136 156.0
60.334397992 143.0
60.339321848 139.0
60.344245704 145.0
60.349169560 125.0
60.354093416 151.0
60.359017272 145.0
60.363941128 159.0
60.368864984 161.0
60.373788841 146.0
60.378712697 177.0
60.383636553 139.0
60.388560409 144.0
60.393484265 139.0
60.398408121 135.0
60.403331977 157.0
60.408255833 163.0
60.413179689 140.0
60.418103545 140.0
60.423027401 152.0
60.427951257 148.0
60.432875113 143.0
60.437798969 150.0
60.442722825 148.0
60.447646681 138.0
60.452570537 131.0
60.457494393 125.0
60.462418249 152.0
60.467342105 135.0
60.472265961 160.0
60.477189817 149.0
60.482113673 132.0
60.487037529 150.0
60.491961385 139.0
60.496885241 144.0
60.501809097 127.0
60.506732953 147.0
60.511656809 130.0
60.516580665 136.0
60.521504521 140.0
60.526428377 147.0
60.531352233 160.0
60.536276089 168.0
60.541199945 136.0
60.546123801 178.0
60.551047657 156.0
60.555971513 158.0
60.560895369 166.0
60.565819225 159.0
60.570743081 140.0
60.575666937 151.0
60.580590793 136.0
60.585514649 136.0
60.590438505 151.0
60.595362361 177.0
60.600286217 147.0
60.605210073 143.0
60.610133929 138.0
60.615057785 145.0
60.619981641 128.0
60.624905497 161.0
60.629829353 134.0
60.634753209 178.0
60.639677065 148.0
60.644600921 159.0
60.649524777 165.0
60.654448633 169.0
60.659372489 180.0
60.664296345 155.0
60.669220201 174.0
60.674144057 165.0
60.679067913 166.0
60.683991769 176.0
60.688915625 156.0
60.693839481 158.0
60.698763337 170.0
60.703687193 164.0
60.708611049 161.0
60.713534905 198.0
60.718458761 157.0
60.723382617 181.0
60.728306473 198.0
60.733230329 202.0
60.738154185 228.0
60.743078042 212.0
60.748001898 219.0
60.752925754 210.0
60.757849610 237.0
60.762773466 279.0
60.767697322 303.0
60.772621178 336.0
60.777545034 374.0
60.782468890 428.0
60.787392746 478.0
60.792316602 525.0
60.797240458 593.0
60.802164314 667.0
60.807088170 771.0
60.812012026 970.0
60.816935882 1014.0
60.821859738 1136.0
60.826783594 1384.0
60.831707450 1361.0
60.836631306 1303.0
60.841555162 1408.0
60.846479018 1392.0
60.851402874 1380.0
60.856326730 1417.0
60.861250586 1320.0
60.866174442 1230.0
60.871098298 1122.0
60.876022154 1036.0
60.880946010 926.0
60.885869866 904.0
60.890793722 834.0
60.895717578 741.0
60.900641434 713.0
60.905565290 674.0
60.910489146 711.0
60.915413002 695.0
60.920336858 635.0
60.925260714 603.0
60.930184570 655.0
60.935108426 575.0
60.940032282 545.0
60.944956138 495.0
60.949879994 446.0
60.954803850 401.0
60.959727706 410.0
60.964651562 356.0
60.969575418 355.0
60.974499274 308.0
60.979423130 265.0
60.984346986 286.0
60.989270842 236.0
60.994194698 268.0
60.999118554 228.0
61.004042410 223.0
61.008966266 217.0
61.013890122 198.0
61.018813978 229.0
61.023737834 194.0
61.028661690 199.0
61.033585546 176.0
61.038509402 208.0
61.043433258 173.0
61.048357114 197.0
61.053280970 158.0
61.058204826 180.0
61.063128682 182.0
61.068052538 176.0
61.072976394 178.0
61.077900250 186.0
61.082824106 184.0
61.087747962 159.0
61.092671818 173.0
61.097595674 169.0
61.102519530 164.0
61.107443386 181.0
61.112367243 175.0
61.117291099 186.0
61.122214955 149.0
61.127138811 139.0
61.132062667 165.0
61.136986523 153.0
61.141910379 157.0
61.146834235 163.0
61.151758091 174.0
61.156681947 167.0
61.161605803 157.0
61.166529659 164.0
61.171453515 166.0
61.176377371 145.0
61.181301227 132.0
61.186225083 151.0
61.191148939 140.0
61.196072795 148.0
61.200996651 194.0
61.205920507 159.0
61.210844363 159.0
61.215768219 149.0
61.220692075 165.0
61.225615931 152.0
61.230539787 157.0
61.235463643 169.0
61.240387499 167.0
61.245311355 130.0
61.250235211 189.0
61.255159067 167.0
61.260082923 165.0
61.265006779 149.0
61.269930635 149.0
61.274854491 159.0
61.279778347 164.0
61.284702203 155.0
61.289626059 160.0
61.294549915 164.0
61.299473771 156.0
61.304397627 145.0
61.309321483 135.0
61.314245339 155.0
61.319169195 145.0
61.324093051 152.0
61.329016907 155.0
61.333940763 158.0
61.338864619 145.0
61.343788475 138.0
61.348712331 174.0
61.353636187 150.0
61.358560043 157.0
61.363483899 168.0
61.368407755 171.0
61.373331611 161.0
61.378255467 148.0
61.383179323 156.0
61.388103179 170.0
61.393027035 139.0
61.397950891 158.0
61.402874747 141.0
61.407798603 146.0
61.412722459 136.0
61.417646315 158.0
61.422570171 156.0
61.427494027 127.0
61.432417883 141.0
61.437341739 145.0
61.442265595 141.0
61.447189451 143.0
61.452113307 161.0
61.457037163 181.0
61.461961019 131.0
61.466884875 128.0
61.471808731 134.0
61.476732587 165.0
61.481656443 168.0
61.486580300 148.0
61.491504156 156.0
61.496428012 154.0
61.501351868 159.0
61.506275724 137.0
61.511199580 153.0
61.516123436 134.0
61.521047292 153.0
61.525971148 140.0
61.530895004 123.0
61.535818860 143.0
61.540742716 118.0
61.545666572 133.0
61.550590428 118.0
61.555514284 149.0
61.560438140 150.0
61.565361996 141.0
61.570285852 135.0
61.575209708 157.0
61.580133564 153.0
61.585057420 169.0
61.589981276 166.0
61.594905132 124.0
61.599828988 160.0
61.604752844 157.0
61.609676700 142.0
61.614600556 162.0
61.619524412 167.0
61.624448268 135.0
61.629372124 136.0
61.634295980 150.0
61.639219836 150.0
61.644143692 133.0
61.649067548 141.0
61.653991404 174.0
61.658915260 162.0
61.663839116 129.0
61.668762972 142.0
61.673686828 158.0
61.678610684 154.0
61.683534540 143.0
61.688458396 134.0
61.693382252 151.0
61.698306108 140.0
61.703229964 151.0
61.708153820 156.0
61.713077676 139.0
61.718001532 157.0
61.722925388 157.0
61.727849244 171.0
61.732773100 126.0
61.737696956 133.0
61.742620812 151.0
61.747544668 158.0
61.752468524 122.0
61.757392380 154.0
61.762316236 136.0
61.767240092 151.0
61.772163948 146.0
61.777087804 125.0
61.782011660 147.0
61.786935516 152.0
61.791859372 142.0
61.796783228 149.0
61.801707084 148.0
61.806630940 132.0
61.811554796 133.0
61.816478652 133.0
61.821402508 136.0
61.826326364 150.0
61.831250220 149.0
61.836174076 175.0
61.841097932 134.0
61.846021788 155.0
61.850945644 135.0
61.855869501 155.0
61.860793357 189.0
61.865717213 151.0
61.870641069 139.0
61.875564925 151.0
61.880488781 150.0
61.885412637 137.0
61.890336493 151.0
61.895260349 130.0
61.900184205 154.0
61.905108061 153.0
61.910031917 133.0
61.914955773 136.0
61.919879629 128.0
61.924803485 149.0
61.929727341 164.0
61.934651197 162.0
61.939575053 155.0
61.944498909 148.0
61.949422765 158.0
61.954346621 137.0
61.959270477 160.0
61.964194333 156.0
61.969118189 138.0
61.974042045 151.0
61.978965901 152.0
61.983889757 166.0
61.988813613 150.0
61.993737469 145.0
61.998661325 138.0
62.003585181 141.0
62.008509037 133.0
62.013432893 137.0
62.018356749 140.0
62.023280605 151.0
62.028204461 152.0
62.033128317 161.0
62.038052173 125.0
62.042976029 155.0
62.047899885 153.0
62.052823741 152.0
62.057747597 148.0
62.062671453 156.0
62.067595309 136.0
62.072519165 145.0
62.077443021 165.0
62.082366877 146.0
62.087290733 158.0
62.092214589 153.0
62.097138445 122.0
62.102062301 152.0
62.106986157 171.0
62.111910013 134.0
62.116833869 128.0
62.121757725 153.0
62.126681581 152.0
62.131605437 172.0
62.136529293 142.0
62.141453149 138.0
62.146377005 146.0
62.151300861 160.0
62.156224717 157.0
62.161148573 154.0
62.166072429 161.0
62.170996285 152.0
62.175920141 152.0
62.180843997 135.0
62.185767853 146.0
62.190691709 165.0
62.195615565 138.0
62.200539421 144.0
62.205463277 163.0
62.210387133 130.0
62.215310989 154.0
62.220234845 135.0
62.225158702 151.0
62.230082558 155.0
62.235006414 131.0
62.239930270 151.0
62.244854126 158.0
62.249777982 161.0
62.254701838 144.0
62.259625694 160.0
62.264549550 141.0
62.269473406 173.0
62.274397262 159.0
62.279321118 142.0
62.284244974 147.0
62.289168830 159.0
62.294092686 130.0
62.299016542 153.0
62.303940398 150.0
62.308864254 156.0
62.313788110 160.0
62.318711966 143.0
62.323635822 130.0
62.328559678 137.0
62.333483534 144.0
62.338407390 154.0
62.343331246 161.0
62.348255102 156.0
62.353178958 139.0
62.358102814 156.0
62.363026670 144.0
62.367950526 145.0
62.372874382 134.0
62.377798238 142.0
62.382722094 142.0
62.387645950 156.0
62.392569806 150.0
62.397493662 167.0
62.402417518 141.0
62.407341374 142.0
62.412265230 171.0
62.417189086 164.0
62.422112942 150.0
62.427036798 150.0
62.431960654 141.0
62.436884510 146.0
62.441808366 149.0
62.446732222 150.0
62.451656078 152.0
62.456579934 167.0
62.461503790 145.0
62.466427646 174.0
62.471351502 129.0
62.476275358 138.0
62.481199214 171.0
62.486123070 161.0
62.491046926 149.0
62.495970782 132.0
62.500894638 130.0
62.505818494 131.0
62.510742350 190.0
62.515666206 134.0
62.520590062 176.0
62.525513918 142.0
62.530437774 148.0
62.535361630 191.0
62.540285486 182.0
62.545209342 123.0
62.550133198 164.0
62.555057054 181.0
62.559980910 142.0
62.564904766 156.0
62.569828622 161.0
62.574752478 148.0
62.579676334 164.0
62.584600190 170.0
62.589524046 192.0
62.594447903 148.0
62.599371759 147.0
62.604295615 146.0
62.609219471 167.0
62.614143327 154.0
62.619067183 192.0
62.623991039 141.0
62.628914895 176.0
62.633838751 180.0
62.638762607 149.0
62.643686463 159.0
62.648610319 180.0
62.653534175 160.0
62.658458031 170.0
62.663381887 182.0
62.668305743 175.0
62.673229599 159.0
62.678153455 166.0
62.683077311 159.0
62.688001167 194.0
62.692925023 169.0
62.697848879 159.0
62.702772735 147.0
62.707696591 139.0
62.712620447 166.0
62.717544303 177.0
62.722468159 160.0
62.727392015 159.0
62.732315871 186.0
62.737239727 190.0
62.742163583 171.0
62.747087439 189.0
62.752011295 185.0
62.756935151 189.0
62.761859007 165.0
62.766782863 147.0
62.771706719 167.0
62.776630575 165.0
62.781554431 171.0
62.786478287 182.0
62.791402143 149.0
62.796325999 173.0
62.801249855 148.0
62.806173711 143.0
62.811097567 155.0
62.816021423 175.0
62.820945279 162.0
62.825869135 206.0
62.830792991 182.0
62.835716847 165.0
62.840640703 176.0
62.845564559 180.0
62.850488415 169.0
62.855412271 170.0
62.860336127 138.0
62.865259983 187.0
62.870183839 178.0
62.875107695 172.0
62.880031551 177.0
62.884955407 162.0
62.889879263 179.0
62.894803119 160.0
62.899726975 173.0
62.904650831 163.0
62.909574687 172.0
62.914498543 170.0
62.919422399 160.0
62.924346255 175.0
62.929270111 187.0
62.934193967 163.0
62.939117823 176.0
62.944041679 173.0
62.948965535 150.0
62.953889391 181.0
62.958813247 177.0
62.963737104 174.0
62.968660960 165.0
62.973584816 177.0
62.978508672 194.0
62.983432528 147.0
62.988356384 173.0
62.993280240 180.0
62.998204096 166.0
63.003127952 175.0
63.008051808 165.0
63.012975664 172.0
63.017899520 160.0
63.022823376 171.0
63.027747232 166.0
63.032671088 171.0
63.037594944 165.0
63.042518800 190.0
63.047442656 172.0
63.052366512 165.0
63.057290368 190.0
63.062214224 159.0
63.067138080 193.0
63.072061936 172.0
63.076985792 175.0
63.081909648 165.0
63.086833504 171.0
63.091757360 180.0
63.096681216 202.0
63.101605072 177.0
63.106528928 196.0
63.111452784 176.0
63.116376640 153.0
63.121300496 173.0
63.126224352 179.0
63.131148208 177.0
63.136072064 178.0
63.140995920 173.0
63.145919776 175.0
63.150843632 163.0
63.155767488 190.0
63.160691344 197.0
63.165615200 177.0
63.170539056 168.0
63.175462912 184.0
63.180386768 195.0
63.185310624 211.0
63.190234480 165.0
63.195158336 173.0
63.200082192 203.0
63.205006048 194.0
63.209929904 178.0
63.214853760 168.0
63.219777616 201.0
63.224701472 186.0
63.229625328 172.0
63.234549184 172.0
63.239473040 175.0
63.244396896 205.0
63.249320752 188.0
63.254244608 194.0
63.259168464 183.0
63.264092320 208.0
63.269016176 198.0
63.273940032 182.0
63.278863888 199.0
63.283787744 204.0
63.288711600 182.0
63.293635456 209.0
63.298559312 205.0
63.303483168 187.0
63.308407024 208.0
63.313330880 168.0
63.318254736 181.0
63.323178592 175.0
63.328102448 205.0
63.333026304 200.0
63.337950161 194.0
63.342874017 225.0
63.347797873 216.0
63.352721729 194.0
63.357645585 188.0
63.362569441 186.0
63.367493297 169.0
63.372417153 211.0
63.377341009 185.0
63.382264865 220.0
63.387188721 238.0
63.392112577 211.0
63.397036433 198.0
63.401960289 208.0
63.406884145 230.0
63.411808001 206.0
63.416731857 204.0
63.421655713 204.0
63.426579569 236.0
63.431503425 212.0
63.436427281 213.0
63.441351137 181.0
63.446274993 223.0
63.451198849 231.0
63.456122705 219.0
63.461046561 189.0
63.465970417 239.0
63.470894273 198.0
63.475818129 217.0
63.480741985 233.0
63.485665841 192.0
63.490589697 202.0
63.495513553 220.0
63.500437409 218.0
63.505361265 236.0
63.510285121 221.0
63.515208977 237.0
63.520132833 235.0
63.525056689 229.0
63.529980545 243.0
63.534904401 220.0
63.539828257 217.0
63.544752113 205.0
63.549675969 236.0
63.554599825 227.0
63.559523681 237.0
63.564447537 225.0
63.569371393 247.0
63.574295249 272.0
63.579219105 241.0
63.584142961 241.0
63.589066817 240.0
63.593990673 255.0
63.598914529 264.0
63.603838385 248.0
63.608762241 246.0
63.613686097 246.0
63.618609953 241.0
63.623533809 274.0
63.628457665 229.0
63.633381521 257.0
63.638305377 257.0
63.643229233 288.0
63.648153089 241.0
63.653076945 255.0
63.658000801 276.0
63.662924657 269.0
63.667848513 267.0
63.672772369 255.0
63.677696225 268.0
63.682620081 274.0
63.687543937 256.0
63.692467793 310.0
63.697391649 270.0
63.702315505 288.0
63.707239362 271.0
63.712163218 317.0
63.717087074 279.0
63.722010930 316.0
63.726934786 298.0
63.731858642 275.0
63.736782498 328.0
63.741706354 322.0
63.746630210 283.0
63.751554066 271.0
63.756477922 297.0
63.761401778 290.0
63.766325634 338.0
63.771249490 316.0
63.776173346 331.0
63.781097202 317.0
63.786021058 306.0
63.790944914 306.0
63.795868770 306.0
63.800792626 340.0
63.805716482 346.0
63.810640338 303.0
63.815564194 366.0
63.820488050 322.0
63.825411906 323.0
63.830335762 331.0
63.835259618 318.0
63.840183474 348.0
63.845107330 326.0
63.850031186 365.0
63.854955042 342.0
63.859878898 358.0
63.864802754 352.0
63.869726610 370.0
63.874650466 366.0
63.879574322 379.0
63.884498178 379.0
63.889422034 405.0
63.894345890 422.0
63.899269746 404.0
63.904193602 415.0
63.909117458 413.0
63.914041314 410.0
63.918965170 405.0
63.923889026 427.0
63.928812882 443.0
63.933736738 449.0
63.938660594 449.0
63.943584450 424.0
63.948508306 455.0
63.953432162 448.0
63.958356018 460.0
63.963279874 468.0
63.968203730 446.0
63.973127586 500.0
63.978051442 493.0
63.982975298 503.0
63.987899154 487.0
63.992823010 529.0
63.997746866 476.0
64.002670722 498.0
64.007594578 513.0
64.012518434 566.0
64.017442290 546.0
64.022366146 558.0
64.027290002 582.0
64.032213858 568.0
64.037137714 572.0
64.042061570 601.0
64.046985426 584.0
64.051909282 592.0
64.056833138 619.0
64.061756994 605.0
64.066680850 627.0
64.071604706 654.0
64.076528563 599.0
64.081452419 699.0
64.086376275 651.0
64.091300131 698.0
64.096223987 679.0
64.101147843 738.0
64.106071699 739.0
64.110995555 712.0
64.115919411 784.0
64.120843267 804.0
64.125767123 792.0
64.130690979 829.0
64.135614835 842.0
64.140538691 852.0
64.145462547 864.0
64.150386403 883.0
64.155310259 883.0
64.160234115 890.0
64.165157971 916.0
64.170081827 878.0
64.175005683 969.0
64.179929539 1053.0
64.184853395 1003.0
64.189777251 980.0
64.194701107 1088.0
64.199624963 1050.0
64.204548819 1109.0
64.209472675 1106.0
64.214396531 1101.0
64.219320387 1163.0
64.224244243 1153.0
64.229168099 1223.0
64.234091955 1264.0
64.239015811 1202.0
64.243939667 1275.0
64.248863523 1312.0
64.253787379 1319.0
64.258711235 1364.0
64.263635091 1418.0
64.268558947 1425.0
64.273482803 1414.0
64.278406659 1565.0
64.283330515 1500.0
64.288254371 1432.0
64.293178227 1551.0
64.298102083 1622.0
64.303025939 1618.0
64.307949795 1703.0
64.312873651 1746.0
64.317797507 1803.0
64.322721363 1868.0
64.327645219 1752.0
64.332569075 1885.0
64.337492931 1808.0
64.342416787 1935.0
64.347340643 1949.0
64.352264499 1975.0
64.357188355 2015.0
64.362112211 1986.0
64.367036067 2140.0
64.371959923 2100.0
64.376883779 2124.0
64.381807635 2180.0
64.386731491 2153.0
64.391655347 2191.0
64.396579203 2423.0
64.401503059 2355.0
64.406426915 2358.0
64.411350771 2451.0
64.416274627 2388.0
64.421198483 2499.0
64.426122339 2502.0
64.431046195 2517.0
64.435970051 2514.0
64.440893907 2620.0
64.445817764 2648.0
64.450741620 2542.0
64.455665476 2593.0
64.460589332 2567.0
64.465513188 2671.0
64.470437044 2703.0
64.475360900 2618.0
64.480284756 2640.0
64.485208612 2738.0
64.490132468 2705.0
64.495056324 2790.0
64.499980180 2740.0
64.504904036 2731.0
64.509827892 2735.0
64.514751748 2763.0
64.519675604 2701.0
64.524599460 2791.0
64.529523316 2731.0
64.534447172 2661.0
64.539371028 2765.0
64.544294884 2642.0
64.549218740 2734.0
64.554142596 2755.0
64.559066452 2735.0
64.563990308 2656.0
64.568914164 2655.0
64.573838020 2624.0
64.578761876 2720.0
64.583685732 2501.0
64.588609588 2530.0
64.593533444 2568.0
64.598457300 2548.0
64.603381156 2433.0
64.608305012 2561.0
64.613228868 2511.0
64.618152724 2312.0
64.623076580 2480.0
64.628000436 2332.0
64.632924292 2330.0
64.637848148 2376.0
64.642772004 2369.0
64.647695860 2326.0
64.652619716 2333.0
64.657543572 2236.0
64.662467428 2190.0
64.667391284 2166.0
64.672315140 2172.0
64.677238996 2117.0
64.682162852 2052.0
64.687086708 2096.0
64.692010564 2010.0
64.696934420 2008.0
64.701858276 1974.0
64.706782132 2011.0
64.711705988 1951.0
64.716629844 1881.0
64.721553700 1857.0
64.726477556 1800.0
64.731401412 1707.0
64.736325268 1762.0
64.741249124 1863.0
64.746172980 1709.0
64.751096836 1652.0
64.756020692 1726.0
64.760944548 1603.0
64.765868404 1593.0
64.770792260 1559.0
64.775716116 1546.0
64.780639972 1540.0
64.785563828 1487.0
64.790487684 1497.0
64.795411540 1491.0
64.800335396 1418.0
64.805259252 1345.0
64.810183108 1408.0
64.815106965 1307.0
64.820030821 1349.0
64.824954677 1260.0
64.829878533 1253.0
64.834802389 1250.0
64.839726245 1224.0
64.844650101 1190.0
64.849573957 1110.0
64.854497813 1150.0
64.859421669 1186.0
64.864345525 1156.0
64.869269381 1063.0
64.874193237 1079.0
64.879117093 1129.0
64.884040949 1045.0
64.888964805 1007.0
64.893888661 1027.0
64.898812517 944.0
64.903736373 963.0
64.908660229 1006.0
64.913584085 928.0
64.918507941 913.0
64.923431797 897.0
64.928355653 840.0
64.933279509 885.0
64.938203365 855.0
64.943127221 848.0
64.948051077 827.0
64.952974933 863.0
64.957898789 887.0
64.962822645 820.0
64.967746501 802.0
64.972670357 815.0
64.977594213 798.0
64.982518069 764.0
64.987441925 749.0
64.992365781 770.0
64.997289637 740.0
65.002213493 691.0
65.007137349 721.0
65.012061205 743.0
65.016985061 677.0
65.021908917 648.0
65.026832773 637.0
65.031756629 630.0
65.036680485 642.0
65.041604341 628.0
65.046528197 665.0
65.051452053 587.0
65.056375909 620.0
65.061299765 638.0
65.066223621 606.0
65.071147477 599.0
65.076071333 593.0
65.080995189 559.0
65.085919045 576.0
65.090842901 540.0
65.095766757 515.0
65.100690613 537.0
65.105614469 535.0
65.110538325 553.0
65.115462181 508.0
65.120386037 510.0
65.125309893 525.0
65.130233749 552.0
65.135157605 507.0
65.140081461 467.0
65.145005317 447.0
65.149929173 487.0
65.154853029 480.0
65.159776885 481.0
65.164700741 463.0
65.169624597 432.0
65.174548453 474.0
65.179472309 455.0
65.184396165 462.0
65.189320022 457.0
65.194243878 445.0
65.199167734 429.0
65.204091590 421.0
65.209015446 416.0
65.213939302 414.0
65.218863158 446.0
65.223787014 408.0
65.228710870 422.0
65.233634726 398.0
65.238558582 406.0
65.243482438 396.0
65.248406294 333.0
65.253330150 390.0
65.258254006 403.0
65.263177862 376.0
65.268101718 408.0
65.273025574 402.0
65.277949430 394.0
65.282873286 347.0
65.287797142 415.0
65.292720998 351.0
65.297644854 364.0
65.302568710 398.0
65.307492566 336.0
65.312416422 325.0
65.317340278 359.0
65.322264134 343.0
65.327187990 368.0
65.332111846 312.0
65.337035702 299.0
65.341959558 370.0
65.346883414 325.0
65.351807270 337.0
65.356731126 334.0
65.361654982 376.0
65.366578838 318.0
65.371502694 337.0
65.376426550 306.0
65.381350406 331.0
65.386274262 350.0
65.391198118 349.0
65.396121974 298.0
65.401045830 302.0
65.405969686 339.0
65.410893542 317.0
65.415817398 265.0
65.420741254 330.0
65.425665110 278.0
65.430588966 326.0
65.435512822 301.0
65.440436678 292.0
65.445360534 320.0
65.450284390 320.0
65.455208246 278.0
65.460132102 294.0
65.465055958 288.0
65.469979814 302.0
65.474903670 281.0
65.479827526 305.0
65.484751382 316.0
65.489675238 298.0
65.494599094 292.0
65.499522950 319.0
65.504446806 294.0
65.509370662 277.0
65.514294518 246.0
65.519218374 282.0
65.524142230 323.0
65.529066086 276.0
65.533989942 281.0
65.538913798 304.0
65.543837654 249.0
65.548761510 281.0
65.553685366 295.0
65.558609223 231.0
65.563533079 289.0
65.568456935 280.0
65.573380791 285.0
65.578304647 261.0
65.583228503 285.0
65.588152359 277.0
65.593076215 273.0
65.598000071 262.0
65.602923927 266.0
65.607847783 287.0
65.612771639 278.0
65.617695495 267.0
65.622619351 225.0
65.627543207 260.0
65.632467063 243.0
65.637390919 262.0
65.642314775 228.0
65.647238631 255.0
65.652162487 256.0
65.657086343 234.0
65.662010199 256.0
65.666934055 235.0
65.671857911 243.0
65.676781767 284.0
65.681705623 258.0
65.686629479 233.0
65.691553335 257.0
65.696477191 221.0
65.701401047 269.0
65.706324903 222.0
65.711248759 278.0
65.716172615 295.0
65.721096471 237.0
65.726020327 255.0
65.730944183 279.0
65.735868039 236.0
65.740791895 266.0
65.745715751 230.0
65.750639607 260.0
65.755563463 216.0
65.760487319 236.0
65.765411175 240.0
65.770335031 284.0
65.775258887 233.0
65.780182743 231.0
65.785106599 228.0
65.790030455 261.0
65.794954311 266.0
65.799878167 272.0
65.804802023 262.0
65.809725879 275.0
65.814649735 282.0
65.819573591 275.0
65.824497447 242.0
65.829421303 217.0
65.834345159 233.0
65.839269015 279.0
65.844192871 276.0
65.849116727 205.0
65.854040583 225.0
65.858964439 280.0
65.863888295 263.0
65.868812151 255.0
65.873736007 226.0
65.878659863 232.0
65.883583719 255.0
65.888507575 263.0
65.893431431 229.0
65.898355287 259.0
65.903279143 267.0
65.908202999 262.0
65.913126855 275.0
65.918050711 275.0
65.922974567 232.0
65.927898424 199.0
65.932822280 223.0
65.937746136 280.0
65.942669992 255.0
65.947593848 268.0
65.952517704 275.0
65.957441560 259.0
65.962365416 256.0
65.967289272 322.0
65.972213128 235.0
65.977136984 256.0
65.982060840 240.0
65.986984696 227.0
65.991908552 266.0
65.996832408 307.0
66.001756264 287.0
66.006680120 269.0
66.011603976 261.0
66.016527832 316.0
66.021451688 268.0
66.026375544 258.0
66.031299400 230.0
66.036223256 260.0
66.041147112 241.0
66.046070968 277.0
66.050994824 262.0
66.055918680 231.0
66.060842536 275.0
66.065766392 299.0
66.070690248 292.0
66.075614104 273.0
66.080537960 285.0
66.085461816 282.0
66.090385672 222.0
66.095309528 237.0
66.100233384 226.0
66.105157240 258.0
66.110081096 275.0
66.115004952 297.0
66.119928808 268.0
66.124852664 225.0
66.129776520 268.0
66.134700376 283.0
66.139624232 292.0
66.144548088 272.0
66.149471944 266.0
66.154395800 272.0
66.159319656 305.0
66.164243512 281.0
66.169167368 289.0
66.174091224 282.0
66.179015080 313.0
66.183938936 312.0
66.188862792 281.0
66.193786648 316.0
66.198710504 272.0
66.203634360 258.0
66.208558216 301.0
66.213482072 284.0
66.218405928 284.0
66.223329784 257.0
66.228253640 296.0
66.233177496 289.0
66.238101352 311.0
66.243025208 313.0
66.247949064 304.0
66.252872920 272.0
66.257796776 298.0
66.262720632 268.0
66.267644488 279.0
66.272568344 288.0
66.277492200 305.0
66.282416056 305.0
66.287339912 313.0
66.292263768 312.0
66.297187625 332.0
66.302111481 288.0
66.307035337 274.0
66.311959193 294.0
66.316883049 304.0
66.321806905 332.0
66.326730761 317.0
66.331654617 313.0
66.336578473 318.0
66.341502329 301.0
66.346426185 322.0
66.351350041 303.0
66.356273897 297.0
66.361197753 319.0
66.366121609 281.0
66.371045465 341.0
66.375969321 342.0
66.380893177 326.0
66.385817033 332.0
66.390740889 328.0
66.395664745 298.0
66.400588601 308.0
66.405512457 338.0
66.410436313 340.0
66.415360169 306.0
66.420284025 321.0
66.425207881 306.0
66.430131737 346.0
66.435055593 344.0
66.439979449 331.0
66.444903305 323.0
66.449827161 316.0
66.454751017 316.0
66.459674873 318.0
66.464598729 341.0
66.469522585 353.0
66.474446441 330.0
66.479370297 323.0
66.484294153 325.0
66.489218009 314.0
66.494141865 348.0
66.499065721 354.0
66.503989577 393.0
66.508913433 340.0
66.513837289 354.0
66.518761145 337.0
66.523685001 361.0
66.528608857 333.0
66.533532713 328.0
66.538456569 349.0
66.543380425 346.0
66.548304281 296.0
66.553228137 350.0
66.558151993 360.0
66.563075849 364.0
66.567999705 307.0
66.572923561 340.0
66.577847417 407.0
66.582771273 387.0
66.587695129 391.0
66.592618985 356.0
66.597542841 361.0
66.602466697 346.0
66.607390553 367.0
66.612314409 366.0
66.617238265 370.0
66.622162121 388.0
66.627085977 387.0
66.632009833 350.0
66.636933689 382.0
66.641857545 363.0
66.646781401 353.0
66.651705257 367.0
66.656629113 389.0
66.661552969 376.0
66.666476826 406.0
66.671400682 393.0
66.676324538 385.0
66.681248394 382.0
66.686172250 432.0
66.691096106 389.0
66.696019962 425.0
66.700943818 414.0
66.705867674 422.0
66.710791530 401.0
66.715715386 432.0
66.720639242 400.0
66.725563098 435.0
66.730486954 454.0
66.735410810 393.0
66.740334666 397.0
66.745258522 387.0
66.750182378 395.0
66.755106234 435.0
66.760030090 408.0
66.764953946 394.0
66.769877802 407.0
66.774801658 443.0
66.779725514 421.0
66.784649370 401.0
66.789573226 419.0
66.794497082 451.0
66.799420938 410.0
66.804344794 443.0
66.809268650 452.0
66.814192506 430.0
66.819116362 412.0
66.824040218 441.0
66.828964074 397.0
66.833887930 384.0
66.838811786 450.0
66.843735642 421.0
66.848659498 443.0
66.853583354 453.0
66.858507210 439.0
66.863431066 444.0
66.868354922 435.0
66.873278778 480.0
66.878202634 405.0
66.883126490 441.0
66.888050346 461.0
66.892974202 512.0
66.897898058 468.0
66.902821914 509.0
66.907745770 449.0
66.912669626 417.0
66.917593482 436.0
66.922517338 475.0
66.927441194 458.0
66.932365050 436.0
66.937288906 446.0
66.942212762 487.0
66.947136618 459.0
66.952060474 470.0
66.956984330 476.0
66.961908186 477.0
66.966832042 503.0
66.971755898 432.0
66.976679754 474.0
66.981603610 432.0
66.986527466 486.0
66.991451322 491.0
66.996375178 486.0
67.001299034 501.0
67.006222890 473.0
67.011146746 520.0
67.016070602 503.0
67.020994458 490.0
67.025918314 503.0
67.030842170 525.0
67.035766026 499.0
67.040689883 532.0
67.045613739 491.0
67.050537595 475.0
67.055461451 484.0
67.060385307 505.0
67.065309163 524.0
67.070233019 548.0
67.075156875 518.0
67.080080731 449.0
67.085004587 571.0
67.089928443 538.0
67.094852299 522.0
67.099776155 504.0
67.104700011 506.0
67.109623867 514.0
67.114547723 531.0
67.119471579 548.0
67.124395435 528.0
67.129319291 510.0
67.134243147 568.0
67.139167003 566.0
67.144090859 549.0
67.149014715 492.0
67.153938571 554.0
67.158862427 538.0
67.163786283 591.0
67.168710139 573.0
67.173633995 535.0
67.178557851 566.0
67.183481707 552.0
67.188405563 604.0
67.193329419 585.0
67.198253275 590.0
67.203177131 592.0
67.208100987 602.0
67.213024843 567.0
67.217948699 574.0
67.222872555 623.0
67.227796411 628.0
67.232720267 581.0
67.237644123 616.0
67.242567979 630.0
67.247491835 599.0
67.252415691 630.0
67.257339547 600.0
67.262263403 666.0
67.267187259 631.0
67.272111115 625.0
67.277034971 613.0
67.281958827 602.0
67.286882683 632.0
67.291806539 612.0
67.296730395 633.0
67.301654251 586.0
67.306578107 673.0
67.311501963 600.0
67.316425819 664.0
67.321349675 694.0
67.326273531 637.0
67.331197387 698.0
67.336121243 651.0
67.341045099 631.0
67.345968955 713.0
67.350892811 648.0
67.355816667 672.0
67.360740523 692.0
67.365664379 734.0
67.370588235 671.0
67.375512091 742.0
67.380435947 699.0
67.385359803 727.0
67.390283659 715.0
67.395207515 687.0
67.400131371 766.0
67.405055227 732.0
67.409979084 717.0
67.414902940 751.0
67.419826796 703.0
67.424750652 755.0
67.429674508 754.0
67.434598364 739.0
67.439522220 756.0
67.444446076 766.0
67.449369932 776.0
67.454293788 795.0
67.459217644 760.0
67.464141500 756.0
67.469065356 888.0
67.473989212 832.0
67.478913068 817.0
67.483836924 762.0
67.488760780 803.0
67.493684636 856.0
67.498608492 826.0
67.503532348 838.0
67.508456204 878.0
67.513380060 870.0
67.518303916 803.0
67.523227772 915.0
67.528151628 863.0
67.533075484 907.0
67.537999340 943.0
67.542923196 903.0
67.547847052 910.0
67.552770908 868.0
67.557694764 879.0
67.562618620 933.0
67.567542476 922.0
67.572466332 937.0
67.577390188 967.0
67.582314044 980.0
67.587237900 966.0
67.592161756 951.0
67.597085612 972.0
67.602009468 995.0
67.606933324 1051.0
67.611857180 1097.0
67.616781036 1033.0
67.621704892 1064.0
67.626628748 1083.0
67.631552604 1178.0
67.636476460 1135.0
67.641400316 1123.0
67.646324172 1103.0
67.651248028 1123.0
67.656171884 1145.0
67.661095740 1180.0
67.666019596 1200.0
67.670943452 1280.0
67.675867308 1236.0
67.680791164 1243.0
67.685715020 1277.0
67.690638876 1277.0
67.695562732 1356.0
67.700486588 1302.0
67.705410444 1400.0
67.710334300 1454.0
67.715258156 1425.0
67.720182012 1501.0
67.725105868 1678.0
67.730029724 1597.0
67.734953580 1750.0
67.739877436 1785.0
67.744801292 1852.0
67.749725148 1921.0
67.754649004 2085.0
67.759572860 2097.0
67.764496716 2307.0
67.769420572 2305.0
67.774344428 2410.0
67.779268285 2582.0
67.784192141 2791.0
67.789115997 2849.0
67.794039853 2882.0
67.798963709 3040.0
67.803887565 3236.0
67.808811421 3381.0
67.813735277 3418.0
67.818659133 3571.0
67.823582989 3617.0
67.828506845 3631.0
67.833430701 3673.0
67.838354557 3781.0
67.843278413 3936.0
67.848202269 3872.0
67.853126125 3937.0
67.858049981 3944.0
67.862973837 3849.0
67.867897693 3924.0
67.872821549 3892.0
67.877745405 3828.0
67.882669261 3816.0
67.887593117 3819.0
67.892516973 3840.0
67.897440829 3748.0
67.902364685 3758.0
67.907288541 3706.0
67.912212397 3692.0
67.917136253 3684.0
67.922060109 3711.0
67.926983965 3742.0
67.931907821 3867.0
67.936831677 3960.0
67.941755533 3812.0
67.946679389 3982.0
67.951603245 4049.0
67.956527101 4071.0
67.961450957 4301.0
67.966374813 4417.0
67.971298669 4419.0
67.976222525 4547.0
67.981146381 4793.0
67.986070237 4905.0
67.990994093 5195.0
67.995917949 5364.0
68.000841805 5660.0
68.005765661 5952.0
68.010689517 6330.0
68.015613373 6739.0
68.020537229 6975.0
68.025461085 7394.0
68.030384941 8098.0
68.035308797 8658.0
68.040232653 9428.0
68.045156509 9858.0
68.050080365 10476.0
68.055004221 11479.0
68.059928077 12432.0
68.064851933 13899.0
68.069775789 15238.0
68.074699645 16965.0
68.079623501 18900.0
68.084547357 21448.0
68.089471213 23762.0
68.094395069 27848.0
68.099318925 32681.0
68.104242781 38183.0
68.109166637 46961.0
68.114090493 57987.0
68.119014349 74860.0
68.123938205 98533.0
68.128862061 135656.0
68.133785917 181251.0
68.138709773 235563.0
68.143633629 280798.0
68.148557486 317676.0
68.153481342 340255.0
68.158405198 356014.0
68.163329054 365547.0
68.168252910 369393.0
68.173176766 368744.0
68.178100622 356359.0
68.183024478 337040.0
68.187948334 300014.0
68.192872190 253119.0
68.197796046 200187.0
68.202719902 155261.0
68.207643758 120196.0
68.212567614 95753.0
68.217491470 76524.0
68.222415326 61711.0
68.227339182 50412.0
68.232263038 42248.0
68.237186894 35679.0
68.242110750 30948.0
68.247034606 27697.0
68.251958462 25060.0
68.256882318 22950.0
68.261806174 21707.0
68.266730030 21019.0
68.271653886 20868.0
68.276577742 21121.0
68.281501598 21608.0
68.286425454 22570.0
68.291349310 24995.0
68.296273166 27550.0
68.301197022 32585.0
68.306120878 35971.0
68.311044734 47289.0
68.315968590 54464.0
68.320892446 76928.0
68.325816302 89382.0
68.330740158 116797.0
68.335664014 134792.0
68.340587870 152791.0
68.345511726 168165.0
68.350435582 172782.0
68.355359438 183252.0
68.360283294 180704.0
68.365207150 185503.0
68.370131006 173005.0
68.375054862 169868.0
68.379978718 146337.0
68.384902574 133408.0
68.389826430 106859.0
68.394750286 87392.0
68.399674142 71520.0
68.404597998 53929.0
68.409521854 46284.0
68.414445710 34002.0
68.419369566 30886.0
68.424293422 23089.0
68.429217278 21609.0
68.434141134 16672.0
68.439064990 15988.0
68.443988846 12835.0
68.448912702 12525.0
68.453836558 10286.0
68.458760414 10097.0
68.463684270 8874.0
68.468608126 8527.0
68.473531982 7425.0
68.478455838 7463.0
68.483379694 6568.0
68.488303550 6431.0
68.493227406 5949.0
68.498151262 5613.0
68.503075118 5379.0
68.507998974 5108.0
68.512922830 4891.0
68.517846687 4699.0
68.522770543 4526.0
68.527694399 4224.0
68.532618255 4209.0
68.537542111 3980.0
68.542465967 3861.0
68.547389823 3754.0
68.552313679 3552.0
68.557237535 3390.0
68.562161391 3433.0
68.567085247 3244.0
68.572009103 3343.0
68.576932959 3063.0
68.581856815 3041.0
68.586780671 2829.0
68.591704527 2927.0
68.596628383 2774.0
68.601552239 2745.0
68.606476095 2683.0
68.611399951 2633.0
68.616323807 2493.0
68.621247663 2427.0
68.626171519 2392.0
68.631095375 2316.0
68.636019231 2248.0
68.640943087 2254.0
68.645866943 2174.0
68.650790799 2053.0
68.655714655 2037.0
68.660638511 2044.0
68.665562367 1952.0
68.670486223 1928.0
68.675410079 1871.0
68.680333935 1908.0
68.685257791 1809.0
68.690181647 1700.0
68.695105503 1770.0
68.700029359 1734.0
68.704953215 1672.0
68.709877071 1633.0
68.714800927 1701.0
68.719724783 1608.0
68.724648639 1660.0
68.729572495 1536.0
68.734496351 1561.0
68.739420207 1531.0
68.744344063 1530.0
68.749267919 1535.0
68.754191775 1425.0
68.759115631 1395.0
68.764039487 1337.0
68.768963343 1401.0
68.773887199 1268.0
68.778811055 1338.0
68.783734911 1360.0
68.788658767 1329.0
68.793582623 1298.0
68.798506479 1272.0
68.803430335 1229.0
68.808354191 1230.0
68.813278047 1173.0
68.818201903 1102.0
68.823125759 1145.0
68.828049615 1153.0
68.832973471 1128.0
68.837897327 1070.0
68.842821183 1134.0
68.847745039 1129.0
68.852668895 1055.0
68.857592751 1005.0
68.862516607 1038.0
68.867440463 1006.0
68.872364319 991.0
68.877288175 1015.0
68.882212031 997.0
68.887135887 1043.0
68.892059744 951.0
68.896983600 902.0
68.901907456 934.0
68.906831312 966.0
68.911755168 914.0
68.916679024 937.0
68.921602880 895.0
68.926526736 909.0
68.931450592 875.0
68.936374448 889.0
68.941298304 876.0
68.946222160 864.0
68.951146016 820.0
68.956069872 842.0
68.960993728 844.0
68.965917584 823.0
68.970841440 768.0
68.975765296 817.0
68.980689152 787.0
68.985613008 822.0
68.990536864 770.0
68.995460720 797.0
69.000384576 741.0
69.005308432 819.0
69.010232288 747.0
69.015156144 778.0
69.020080000 735.0
69.025003856 766.0
69.029927712 750.0
69.034851568 778.0
69.039775424 716.0
69.044699280 667.0
69.049623136 650.0
69.054546992 683.0
69.059470848 658.0
69.064394704 669.0
69.069318560 690.0
69.074242416 689.0
69.079166272 687.0
69.084090128 719.0
69.089013984 668.0
69.093937840 633.0
69.098861696 635.0
69.103785552 630.0
69.108709408 641.0
69.113633264 666.0
69.118557120 622.0
69.123480976 607.0
69.128404832 600.0
69.133328688 612.0
69.138252544 591.0
69.143176400 617.0
69.148100256 628.0
69.153024112 566.0
69.157947968 619.0
69.162871824 584.0
69.167795680 576.0
69.172719536 602.0
69.177643392 593.0
69.182567248 535.0
69.187491104 537.0
69.192414960 513.0
69.197338816 517.0
69.202262672 558.0
69.207186528 522.0
69.212110384 540.0
69.217034240 531.0
69.221958096 512.0
69.226881952 546.0
69.231805808 577.0
69.236729664 507.0
69.241653520 510.0
69.246577376 562.0
69.251501232 532.0
69.256425088 538.0
69.261348945 464.0
69.266272801 519.0
69.271196657 545.0
69.276120513 489.0
69.281044369 465.0
69.285968225 459.0
69.290892081 478.0
69.295815937 487.0
69.300739793 436.0
69.305663649 491.0
69.310587505 460.0
69.315511361 474.0
69.320435217 423.0
69.325359073 469.0
69.330282929 420.0
69.335206785 448.0
69.340130641 471.0
69.345054497 455.0
69.349978353 434.0
69.354902209 423.0
69.359826065 399.0
69.364749921 431.0
69.369673777 398.0
69.374597633 412.0
69.379521489 397.0
69.384445345 398.0
69.389369201 416.0
69.394293057 428.0
69.399216913 447.0
69.404140769 399.0
69.409064625 376.0
69.413988481 401.0
69.418912337 390.0
69.423836193 413.0
69.428760049 383.0
69.433683905 410.0
69.438607761 404.0
69.443531617 393.0
69.448455473 371.0
69.453379329 390.0
69.458303185 368.0
69.463227041 380.0
69.468150897 379.0
69.473074753 352.0
69.477998609 331.0
69.482922465 370.0
69.487846321 379.0
69.492770177 310.0
69.497694033 358.0
69.502617889 413.0
69.507541745 348.0
69.512465601 352.0
69.517389457 376.0
69.522313313 343.0
69.527237169 367.0
69.532161025 352.0
69.537084881 334.0
69.542008737 339.0
69.546932593 333.0
69.551856449 360.0
69.556780305 359.0
69.561704161 346.0
69.566628017 304.0
69.571551873 348.0
69.576475729 321.0
69.581399585 331.0
69.586323441 309.0
69.591247297 307.0
69.596171153 332.0
69.601095009 308.0
69.606018865 299.0
69.610942721 324.0
69.615866577 298.0
69.620790433 340.0
69.625714289 310.0
69.630638146 323.0
69.635562002 298.0
69.640485858 287.0
69.645409714 324.0
69.650333570 293.0
69.655257426 301.0
69.660181282 332.0
69.665105138 295.0
69.670028994 329.0
69.674952850 317.0
69.679876706 310.0
69.684800562 323.0
69.689724418 336.0
69.694648274 278.0
69.699572130 273.0
69.704495986 285.0
69.709419842 298.0
69.714343698 278.0
69.719267554 281.0
69.724191410 299.0
69.729115266 277.0
69.734039122 321.0
69.738962978 286.0
69.743886834 299.0
69.748810690 258.0
69.753734546 270.0
69.758658402 274.0
69.763582258 281.0
69.768506114 230.0
69.773429970 288.0
69.778353826 234.0
69.783277682 272.0
69.788201538 296.0
69.793125394 234.0
69.798049250 221.0
69.802973106 231.0
69.807896962 299.0
69.812820818 283.0
69.817744674 215.0
69.822668530 256.0
69.827592386 260.0
69.832516242 268.0
69.837440098 293.0
69.842363954 231.0
69.847287810 262.0
69.852211666 231.0
69.857135522 233.0
69.862059378 236.0
69.866983234 275.0
69.871907090 274.0
69.876830946 230.0
69.881754802 219.0
69.886678658 267.0
69.891602514 235.0
69.896526370 224.0
69.901450226 219.0
69.906374082 293.0
69.911297938 266.0
69.916221794 219.0
69.921145650 279.0
69.926069506 222.0
69.930993362 200.0
69.935917218 230.0
69.940841074 239.0
69.945764930 267.0
69.950688786 232.0
69.955612642 226.0
69.960536498 238.0
69.965460354 232.0
69.970384210 208.0
69.975308066 237.0
69.980231922 215.0
69.985155778 218.0
69.990079634 235.0
69.995003490 221.0
69.999927347 215.0
70.004851203 210.0
70.009775059 219.0
70.014698915 255.0
70.019622771 183.0
70.024546627 222.0
70.029470483 232.0
70.034394339 277.0
70.039318195 209.0
70.044242051 226.0
70.049165907 210.0
70.054089763 188.0
70.059013619 230.0
70.063937475 186.0
70.068861331 200.0
70.073785187 185.0
70.078709043 210.0
70.083632899 212.0
70.088556755 212.0
70.093480611 205.0
70.098404467 203.0
70.103328323 209.0
70.108252179 201.0
70.113176035 216.0
70.118099891 209.0
70.123023747 187.0
70.127947603 220.0
70.132871459 215.0
70.137795315 202.0
70.142719171 218.0
70.147643027 186.0
70.152566883 231.0
70.157490739 199.0
70.162414595 195.0
70.167338451 206.0
70.172262307 217.0
70.177186163 184.0
70.182110019 210.0
70.187033875 209.0
70.191957731 206.0
70.196881587 208.0
70.201805443 191.0
70.206729299 192.0
70.211653155 199.0
70.216577011 214.0
70.221500867 198.0
70.226424723 192.0
70.231348579 208.0
70.236272435 183.0
70.241196291 233.0
70.246120147 179.0
70.251044003 219.0
70.255967859 223.0
70.260891715 211.0
70.265815571 191.0
70.270739427 193.0
70.275663283 203.0
70.280587139 189.0
70.285510995 213.0
70.290434851 195.0
70.295358707 192.0
70.300282563 197.0
70.305206419 176.0
70.310130275 186.0
70.315054131 203.0
70.319977987 171.0
70.324901843 199.0
70.329825699 226.0
70.334749555 174.0
70.339673411 204.0
70.344597267 177.0
70.349521123 178.0
70.354444979 193.0
70.359368835 211.0
70.364292691 208.0
70.369216548 197.0
70.374140404 172.0
70.379064260 214.0
70.383988116 184.0
70.388911972 211.0
70.393835828 191.0
70.398759684 197.0
70.403683540 200.0
70.408607396 198.0
70.413531252 189.0
70.418455108 185.0
70.423378964 192.0
70.428302820 164.0
70.433226676 179.0
70.438150532 202.0
70.443074388 226.0
70.447998244 177.0
70.452922100 187.0
70.457845956 192.0
70.462769812 186.0
70.467693668 179.0
70.472617524 206.0
70.477541380 159.0
70.482465236 183.0
70.487389092 177.0
70.492312948 190.0
70.497236804 203.0
70.502160660 178.0
70.507084516 186.0
70.512008372 158.0
70.516932228 189.0
70.521856084 189.0
70.526779940 175.0
70.531703796 175.0
70.536627652 171.0
70.541551508 203.0
70.546475364 177.0
70.551399220 183.0
70.556323076 177.0
70.561246932 170.0
70.566170788 170.0
70.571094644 174.0
70.576018500 183.0
70.580942356 192.0
70.585866212 187.0
70.590790068 176.0
70.595713924 204.0
70.600637780 162.0
70.605561636 179.0
70.610485492 193.0
70.615409348 189.0
70.620333204 185.0
70.625257060 181.0
70.630180916 164.0
70.635104772 185.0
70.640028628 181.0
70.644952484 180.0
70.649876340 196.0
70.654800196 207.0
70.659724052 173.0
70.664647908 180.0
70.669571764 175.0
70.674495620 169.0
70.679419476 176.0
70.684343332 179.0
70.689267188 186.0
70.694191044 185.0
70.699114900 186.0
70.704038756 155.0
70.708962612 187.0
70.713886468 180.0
70.718810324 205.0
70.723734180 173.0
70.728658036 160.0
70.733581892 186.0
70.738505748 178.0
70.743429605 161.0
70.748353461 192.0
70.753277317 190.0
70.758201173 184.0
70.763125029 176.0
70.768048885 173.0
70.772972741 177.0
70.777896597 187.0
70.782820453 187.0
70.787744309 170.0
70.792668165 166.0
70.797592021 185.0
70.802515877 186.0
70.807439733 181.0
70.812363589 170.0
70.817287445 195.0
70.822211301 171.0
70.827135157 195.0
70.832059013 195.0
70.836982869 189.0
70.841906725 184.0
70.846830581 193.0
70.851754437 156.0
70.856678293 163.0
70.861602149 153.0
70.866526005 175.0
70.871449861 203.0
70.876373717 194.0
70.881297573 176.0
70.886221429 191.0
70.891145285 165.0
70.896069141 161.0
70.900992997 172.0
70.905916853 171.0
70.910840709 189.0
70.915764565 166.0
70.920688421 176.0
70.925612277 146.0
70.930536133 160.0
70.935459989 170.0
70.940383845 163.0
70.945307701 187.0
70.950231557 142.0
70.955155413 165.0
70.960079269 165.0
70.965003125 155.0
70.969926981 174.0
70.974850837 187.0
70.979774693 178.0
70.984698549 173.0
70.989622405 205.0
70.994546261 165.0
70.999470117 186.0
71.004393973 157.0
71.009317829 179.0
71.014241685 183.0
71.019165541 184.0
71.024089397 158.0
71.029013253 156.0
71.033937109 197.0
71.038860965 163.0
71.043784821 178.0
71.048708677 151.0
71.053632533 166.0
71.058556389 180.0
71.063480245 159.0
71.068404101 153.0
71.073327957 177.0
71.078251813 159.0
71.083175669 158.0
71.088099525 181.0
71.093023381 145.0
71.097947237 175.0
71.102871093 185.0
71.107794949 176.0
71.112718806 148.0
71.117642662 166.0
71.122566518 155.0
71.127490374 169.0
71.132414230 163.0
71.137338086 171.0
71.142261942 152.0
71.147185798 173.0
71.152109654 167.0
71.157033510 167.0
71.161957366 175.0
71.166881222 154.0
71.171805078 161.0
71.176728934 169.0
71.181652790 180.0
71.186576646 158.0
71.191500502 159.0
71.196424358 172.0
71.201348214 170.0
71.206272070 185.0
71.211195926 156.0
71.216119782 147.0
71.221043638 184.0
71.225967494 168.0
71.230891350 175.0
71.235815206 163.0
71.240739062 166.0
71.245662918 170.0
71.250586774 167.0
71.255510630 143.0
71.260434486 158.0
71.265358342 156.0
71.270282198 146.0
71.275206054 163.0
71.280129910 182.0
71.285053766 181.0
71.289977622 150.0
71.294901478 161.0
71.299825334 158.0
71.304749190 158.0
71.309673046 171.0
71.314596902 152.0
71.319520758 167.0
71.324444614 157.0
71.329368470 167.0
71.334292326 195.0
71.339216182 150.0
71.344140038 185.0
71.349063894 173.0
71.353987750 154.0
71.358911606 160.0
71.363835462 166.0
71.368759318 156.0
71.373683174 142.0
71.378607030 177.0
71.383530886 164.0
71.388454742 160.0
71.393378598 166.0
71.398302454 169.0
71.403226310 180.0
71.408150166 174.0
71.413074022 167.0
71.417997878 160.0
71.422921734 168.0
71.427845590 155.0
71.432769446 156.0
71.437693302 160.0
71.442617158 181.0
71.447541014 167.0
71.452464870 157.0
71.457388726 151.0
71.462312582 171.0
71.467236438 166.0
71.472160294 159.0
71.477084150 156.0
71.482008007 180.0
71.486931863 156.0
71.491855719 174.0
71.496779575 152.0
71.501703431 186.0
71.506627287 165.0
71.511551143 150.0
71.516474999 141.0
71.521398855 169.0
71.526322711 151.0
71.531246567 160.0
71.536170423 171.0
71.541094279 169.0
71.546018135 176.0
71.550941991 129.0
71.555865847 160.0
71.560789703 145.0
71.565713559 175.0
71.570637415 140.0
71.575561271 142.0
71.580485127 144.0
71.585408983 142.0
71.590332839 167.0
71.595256695 152.0
71.600180551 170.0
71.605104407 165.0
71.610028263 173.0
71.614952119 143.0
71.619875975 172.0
71.624799831 151.0
71.629723687 137.0
71.634647543 146.0
71.639571399 138.0
71.644495255 174.0
71.649419111 154.0
71.654342967 144.0
71.659266823 148.0
71.664190679 155.0
71.669114535 152.0
71.674038391 136.0
71.678962247 164.0
71.683886103 164.0
71.688809959 153.0
71.693733815 142.0
71.698657671 159.0
71.703581527 164.0
71.708505383 156.0
71.713429239 153.0
71.718353095 161.0
71.723276951 133.0
71.728200807 159.0
71.733124663 166.0
71.738048519 143.0
71.742972375 142.0
71.747896231 162.0
71.752820087 172.0
71.757743943 173.0
71.762667799 161.0
71.767591655 166.0
71.772515511 169.0
71.777439367 177.0
71.782363223 146.0
71.787287079 158.0
71.792210935 155.0
71.797134791 149.0
71.802058647 135.0
71.806982503 157.0
71.811906359 143.0
71.816830215 150.0
71.821754071 164.0
71.826677927 146.0
71.831601783 145.0
71.836525639 164.0
71.841449495 155.0
71.846373351 161.0
71.851297208 150.0
71.856221064 161.0
71.861144920 126.0
71.866068776 157.0
71.870992632 160.0
71.875916488 162.0
71.880840344 146.0
71.885764200 172.0
71.890688056 137.0
71.895611912 151.0
71.900535768 136.0
71.905459624 147.0
71.910383480 154.0
71.915307336 151.0
71.920231192 163.0
71.925155048 159.0
71.930078904 168.0
71.935002760 155.0
71.939926616 169.0
71.944850472 148.0
71.949774328 142.0
71.954698184 164.0
71.959622040 164.0
71.964545896 136.0
71.969469752 165.0
71.974393608 150.0
71.979317464 162.0
71.984241320 150.0
71.989165176 151.0
71.994089032 152.0
71.999012888 137.0
72.003936744 139.0
72.008860600 174.0
72.013784456 154.0
72.018708312 144.0
72.023632168 175.0
72.028556024 157.0
72.033479880 149.0
72.038403736 158.0
72.043327592 150.0
72.048251448 131.0
72.053175304 153.0
72.058099160 124.0
72.063023016 140.0
72.067946872 170.0
72.072870728 183.0
72.077794584 169.0
72.082718440 150.0
72.087642296 148.0
72.092566152 131.0
72.097490008 142.0
72.102413864 132.0
72.107337720 134.0
72.112261576 129.0
72.117185432 128.0
72.122109288 145.0
72.127033144 163.0
72.131957000 148.0
72.136880856 156.0
72.141804712 151.0
72.146728568 158.0
72.151652424 154.0
72.156576280 158.0
72.161500136 169.0
72.166423992 146.0
72.171347848 147.0
72.176271704 159.0
72.181195560 147.0
72.186119416 163.0
72.191043272 148.0
72.195967128 160.0
72.200890984 137.0
72.205814840 145.0
72.210738696 143.0
72.215662552 148.0
72.220586409 148.0
72.225510265 141.0
72.230434121 139.0
72.235357977 136.0
72.240281833 128.0
72.245205689 135.0
72.250129545 141.0
72.255053401 148.0
72.259977257 144.0
72.264901113 163.0
72.269824969 136.0
72.274748825 164.0
72.279672681 142.0
72.284596537 157.0
72.289520393 108.0
72.294444249 136.0
72.299368105 138.0
72.304291961 148.0
72.309215817 143.0
72.314139673 146.0
72.319063529 146.0
72.323987385 132.0
72.328911241 139.0
72.333835097 137.0
72.338758953 145.0
72.343682809 121.0
72.348606665 135.0
72.353530521 150.0
72.358454377 145.0
72.363378233 153.0
72.368302089 140.0
72.373225945 148.0
72.378149801 150.0
72.383073657 153.0
72.387997513 147.0
72.392921369 165.0
72.397845225 160.0
72.402769081 152.0
72.407692937 171.0
72.412616793 143.0
72.417540649 167.0
72.422464505 161.0
72.427388361 146.0
72.432312217 143.0
72.437236073 153.0
72.442159929 138.0
72.447083785 122.0
72.452007641 147.0
72.456931497 165.0
72.461855353 144.0
72.466779209 152.0
72.471703065 133.0
72.476626921 155.0
72.481550777 144.0
72.486474633 123.0
72.491398489 145.0
72.496322345 148.0
72.501246201 138.0
72.506170057 156.0
72.511093913 172.0
72.516017769 144.0
72.520941625 157.0
72.525865481 139.0
72.530789337 150.0
72.535713193 144.0
72.540637049 134.0
72.545560905 135.0
72.550484761 140.0
72.555408617 144.0
72.560332473 154.0
72.565256329 156.0
72.570180185 137.0
72.575104041 146.0
72.580027897 149.0
72.584951753 157.0
72.589875609 130.0
72.594799466 145.0
72.599723322 158.0
72.604647178 143.0
72.609571034 125.0
72.614494890 133.0
72.619418746 145.0
72.624342602 167.0
72.629266458 150.0
72.634190314 141.0
72.639114170 142.0
72.644038026 136.0
72.648961882 136.0
72.653885738 148.0
72.658809594 142.0
72.663733450 140.0
72.668657306 153.0
72.673581162 169.0
72.678505018 157.0
72.683428874 187.0
72.688352730 136.0
72.693276586 165.0
72.698200442 147.0
72.703124298 139.0
72.708048154 141.0
72.712972010 151.0
72.717895866 148.0
72.722819722 140.0
72.727743578 157.0
72.732667434 150.0
72.737591290 146.0
72.742515146 160.0
72.747439002 134.0
72.752362858 161.0
72.757286714 136.0
72.762210570 137.0
72.767134426 153.0
72.772058282 150.0
72.776982138 132.0
72.781905994 161.0
72.786829850 139.0
72.791753706 148.0
72.796677562 165.0
72.801601418 132.0
72.806525274 133.0
72.811449130 138.0
72.816372986 142.0
72.821296842 146.0
72.826220698 129.0
72.831144554 146.0
72.836068410 131.0
72.840992266 136.0
72.845916122 132.0
72.850839978 128.0
72.855763834 140.0
72.860687690 126.0
72.865611546 145.0
72.870535402 155.0
72.875459258 151.0
72.880383114 143.0
72.885306970 141.0
72.890230826 124.0
72.895154682 129.0
72.900078538 146.0
72.905002394 164.0
72.909926250 143.0
72.914850106 144.0
72.919773962 147.0
72.924697818 121.0
72.929621674 143.0
72.934545530 166.0
72.939469386 147.0
72.944393242 135.0
72.949317098 134.0
72.954240954 142.0
72.959164810 157.0
72.964088667 138.0
72.969012523 163.0
72.973936379 132.0
72.978860235 139.0
72.983784091 143.0
72.988707947 150.0
72.993631803 146.0
72.998555659 137.0
73.003479515 151.0
73.008403371 155.0
73.013327227 139.0
73.018251083 146.0
73.023174939 148.0
73.028098795 155.0
73.033022651 145.0
73.037946507 156.0
73.042870363 137.0
73.047794219 140.0
73.052718075 142.0
73.057641931 167.0
73.062565787 156.0
73.067489643 142.0
73.072413499 134.0
73.077337355 150.0
73.082261211 153.0
73.087185067 160.0
73.092108923 152.0
73.097032779 152.0
73.101956635 156.0
73.106880491 155.0
73.111804347 148.0
73.116728203 140.0
73.121652059 144.0
73.126575915 149.0
73.131499771 141.0
73.136423627 180.0
73.141347483 150.0
73.146271339 144.0
73.151195195 136.0
73.156119051 153.0
73.161042907 159.0
73.165966763 134.0
73.170890619 168.0
73.175814475 143.0
73.180738331 140.0
73.185662187 150.0
73.190586043 128.0
73.195509899 149.0
73.200433755 138.0
73.205357611 157.0
73.210281467 147.0
73.215205323 152.0
73.220129179 148.0
73.225053035 146.0
73.229976891 149.0
73.234900747 111.0
73.239824603 139.0
73.244748459 140.0
73.249672315 129.0
73.254596171 146.0
73.259520027 134.0
73.264443883 156.0
73.269367739 136.0
73.274291595 163.0
73.279215451 131.0
73.284139307 142.0
73.289063163 123.0
73.293987019 142.0
73.298910875 152.0
73.303834731 134.0
73.308758587 152.0
73.313682443 154.0
73.318606299 136.0
73.323530155 145.0
73.328454011 146.0
73.333377868 151.0
73.338301724 153.0
73.343225580 131.0
73.348149436 132.0
73.353073292 139.0
73.357997148 133.0
73.362921004 134.0
73.367844860 137.0
73.372768716 133.0
73.377692572 147.0
73.382616428 134.0
73.387540284 159.0
73.392464140 137.0
73.397387996 151.0
73.402311852 141.0
73.407235708 150.0
73.412159564 145.0
73.417083420 150.0
73.422007276 143.0
73.426931132 139.0
73.431854988 146.0
73.436778844 119.0
73.441702700 128.0
73.446626556 153.0
73.451550412 121.0
73.456474268 156.0
73.461398124 158.0
73.466321980 130.0
73.471245836 130.0
73.476169692 133.0
73.481093548 128.0
73.486017404 138.0
73.490941260 159.0
73.495865116 124.0
73.500788972 134.0
73.505712828 145.0
73.510636684 135.0
73.515560540 131.0
73.520484396 135.0
73.525408252 141.0
73.530332108 138.0
73.535255964 133.0
73.540179820 128.0
73.545103676 153.0
73.550027532 138.0
73.554951388 140.0
73.559875244 133.0
73.564799100 165.0
73.569722956 146.0
73.574646812 130.0
73.579570668 161.0
73.584494524 126.0
73.589418380 131.0
73.594342236 111.0
73.599266092 147.0
73.604189948 134.0
73.609113804 155.0
73.614037660 122.0
73.618961516 149.0
73.623885372 128.0
73.628809228 157.0
73.633733084 159.0
73.638656940 142.0
73.643580796 145.0
73.648504652 153.0
73.653428508 144.0
73.658352364 143.0
73.663276220 143.0
73.668200076 146.0
73.673123932 138.0
73.678047788 153.0
73.682971644 134.0
73.687895500 133.0
73.692819356 153.0
73.697743212 147.0
73.702667069 129.0
73.707590925 129.0
73.712514781 159.0
73.717438637 157.0
73.722362493 153.0
73.727286349 130.0
73.732210205 140.0
73.737134061 131.0
73.742057917 134.0
73.746981773 134.0
73.751905629 139.0
73.756829485 147.0
73.761753341 159.0
73.766677197 147.0
73.771601053 127.0
73.776524909 158.0
73.781448765 139.0
73.786372621 138.0
73.791296477 115.0
73.796220333 130.0
73.801144189 116.0
73.806068045 134.0
73.810991901 142.0
73.815915757 149.0
73.820839613 145.0
73.825763469 141.0
73.830687325 131.0
73.835611181 127.0
73.840535037 152.0
73.845458893 154.0
73.850382749 139.0
73.855306605 152.0
73.860230461 139.0
73.865154317 134.0
73.870078173 150.0
73.875002029 137.0
73.879925885 130.0
73.884849741 130.0
73.889773597 158.0
73.894697453 158.0
73.899621309 134.0
73.904545165 133.0
73.909469021 142.0
73.914392877 143.0
73.919316733 117.0
73.924240589 147.0
73.929164445 135.0
73.934088301 138.0
73.939012157 141.0
73.943936013 138.0
73.948859869 136.0
73.953783725 151.0
73.958707581 156.0
73.963631437 144.0
73.968555293 128.0
73.973479149 150.0
73.978403005 122.0
73.983326861 136.0
73.988250717 135.0
73.993174573 148.0
73.998098429 144.0
74.003022285 155.0
74.007946141 135.0
74.012869997 115.0
74.017793853 140.0
74.022717709 138.0
74.027641565 163.0
74.032565421 144.0
74.037489277 133.0
74.042413133 147.0
74.047336989 136.0
74.052260845 134.0
74.057184701 158.0
74.062108557 114.0
74.067032413 138.0
74.071956270 127.0
74.076880126 127.0
74.081803982 122.0
74.086727838 151.0
74.091651694 138.0
74.096575550 135.0
74.101499406 132.0
74.106423262 115.0
74.111347118 146.0
74.116270974 141.0
74.121194830 142.0
74.126118686 154.0
74.131042542 158.0
74.135966398 144.0
74.140890254 143.0
74.145814110 135.0
74.150737966 131.0
74.155661822 155.0
74.160585678 137.0
74.165509534 137.0
74.170433390 150.0
74.175357246 141.0
74.180281102 147.0
74.185204958 165.0
74.190128814 140.0
74.195052670 144.0
74.199976526 169.0
74.204900382 158.0
74.209824238 131.0
74.214748094 119.0
74.219671950 140.0
74.224595806 129.0
74.229519662 136.0
74.234443518 136.0
74.239367374 165.0
74.244291230 129.0
74.249215086 131.0
74.254138942 138.0
74.259062798 149.0
74.263986654 140.0
74.268910510 125.0
74.273834366 170.0
74.278758222 154.0
74.283682078 150.0
74.288605934 138.0
74.293529790 130.0
74.298453646 130.0
74.303377502 130.0
74.308301358 136.0
74.313225214 147.0
74.318149070 156.0
74.323072926 137.0
74.327996782 131.0
74.332920638 144.0
74.337844494 123.0
74.342768350 138.0
74.347692206 139.0
74.352616062 137.0
74.357539918 118.0
74.362463774 129.0
74.367387630 146.0
74.372311486 134.0
74.377235342 125.0
74.382159198 160.0
74.387083054 150.0
74.392006910 148.0
74.396930766 153.0
74.401854622 129.0
74.406778478 140.0
74.411702334 117.0
74.416626190 131.0
74.421550046 143.0
74.426473902 128.0
74.431397758 144.0
74.436321614 116.0
74.441245470 163.0
74.446169327 158.0
74.451093183 122.0
74.456017039 126.0
74.460940895 123.0
74.465864751 138.0
74.470788607 148.0
74.475712463 151.0
74.480636319 141.0
74.485560175 153.0
74.490484031 133.0
74.495407887 154.0
74.500331743 137.0
74.505255599 145.0
74.510179455 137.0
74.515103311 133.0
74.520027167 107.0
74.524951023 136.0
74.529874879 140.0
74.534798735 147.0
74.539722591 102.0
74.544646447 134.0
74.549570303 125.0
74.554494159 138.0
74.559418015 139.0
74.564341871 148.0
74.569265727 125.0
74.574189583 142.0
74.579113439 137.0
74.584037295 123.0
74.588961151 134.0
74.593885007 131.0
74.598808863 139.0
74.603732719 124.0
74.608656575 133.0
74.613580431 118.0
74.618504287 135.0
74.623428143 138.0
74.628351999 131.0
74.633275855 143.0
74.638199711 152.0
74.643123567 146.0
74.648047423 152.0
74.652971279 127.0
74.657895135 154.0
74.662818991 151.0
74.667742847 124.0
74.672666703 146.0
74.677590559 151.0
74.682514415 159.0
74.687438271 144.0
74.692362127 145.0
74.697285983 144.0
74.702209839 135.0
74.707133695 138.0
74.712057551 113.0
74.716981407 125.0
74.721905263 138.0
74.726829119 131.0
74.731752975 123.0
74.736676831 140.0
74.741600687 150.0
74.746524543 137.0
74.751448399 137.0
74.756372255 139.0
74.761296111 136.0
74.766219967 112.0
74.771143823 150.0
74.776067679 143.0
74.780991535 146.0
74.785915391 140.0
74.790839247 120.0
74.795763103 132.0
74.800686959 151.0
74.805610815 145.0
74.810534671 137.0
74.815458528 144.0
74.820382384 140.0
74.825306240 134.0
74.830230096 144.0
74.835153952 122.0
74.840077808 135.0
74.845001664 138.0
74.849925520 141.0
74.854849376 128.0
74.859773232 128.0
74.864697088 122.0
74.869620944 141.0
74.874544800 148.0
74.879468656 138.0
74.884392512 127.0
74.889316368 138.0
74.894240224 141.0
74.899164080 150.0
74.904087936 131.0
74.909011792 134.0
74.913935648 146.0
74.918859504 136.0
74.923783360 127.0
74.928707216 124.0
74.933631072 125.0
74.938554928 109.0
74.943478784 137.0
74.948402640 129.0
74.953326496 139.0
74.958250352 132.0
74.963174208 130.0
74.968098064 135.0
74.973021920 139.0
74.977945776 132.0
74.982869632 141.0
74.987793488 128.0
74.992717344 152.0
74.997641200 124.0
