30.002461930 112.0
30.007385786 133.0
30.012309642 136.0
30.017233498 126.0
30.022157354 128.0
30.027081210 133.0
30.032005066 111.0
30.036928922 125.0
30.041852778 139.0
30.046776634 141.0
30.051700490 137.0
30.056624346 127.0
30.061548202 127.0
30.066472058 163.0
30.071395914 158.0
30.076319770 138.0
30.081243626 130.0
30.086167482 149.0
30.091091338 139.0
30.096015194 122.0
30.100939050 129.0
30.105862906 129.0
30.110786762 124.0
30.115710618 146.0
30.120634474 138.0
30.125558330 139.0
30.130482186 128.0
30.135406042 132.0
30.140329898 150.0
30.145253754 127.0
30.150177610 123.0
30.155101466 131.0
30.160025322 128.0
30.164949178 129.0
30.169873034 130.0
30.174796890 132.0
30.179720746 145.0
30.184644602 143.0
30.189568458 141.0
30.194492314 117.0
30.199416170 134.0
30.204340026 135.0
30.209263882 137.0
30.214187738 129.0
30.219111594 134.0
30.224035450 117.0
30.228959306 122.0
30.233883162 118.0
30.238807018 108.0
30.243730874 135.0
30.248654730 133.0
30.253578587 116.0
30.258502443 142.0
30.263426299 136.0
30.268350155 126.0
30.273274011 128.0
30.278197867 128.0
30.283121723 114.0
30.288045579 117.0
30.292969435 127.0
30.297893291 152.0
30.302817147 126.0
30.307741003 133.0
30.312664859 124.0
30.317588715 123.0
30.322512571 130.0
30.327436427 136.0
30.332360283 132.0
30.337284139 120.0
30.342207995 138.0
30.347131851 140.0
30.352055707 129.0
30.356979563 137.0
30.361903419 134.0
30.366827275 127.0
30.371751131 144.0
30.376674987 129.0
30.381598843 116.0
30.386522699 138.0
30.391446555 154.0
30.396370411 133.0
30.401294267 119.0
30.406218123 138.0
30.411141979 155.0
30.416065835 138.0
30.420989691 144.0
30.425913547 122.0
30.430837403 133.0
30.435761259 155.0
30.440685115 103.0
30.445608971 115.0
30.450532827 129.0
30.455456683 128.0
30.460380539 128.0
30.465304395 142.0
30.470228251 127.0
30.475152107 131.0
30.480075963 129.0
30.484999819 132.0
30.489923675 148.0
30.494847531 130.0
30.499771387 133.0
30.504695243 109.0
30.509619099 139.0
30.514542955 146.0
30.519466811 116.0
30.524390667 130.0
30.529314523 142.0
30.534238379 126.0
30.539162235 116.0
30.544086091 134.0
30.549009947 126.0
30.553933803 124.0
30.558857659 115.0
30.563781515 131.0
30.568705371 143.0
30.573629227 133.0
30.578553083 119.0
30.583476939 124.0
30.588400795 140.0
30.593324651 130.0
30.598248507 132.0
30.603172363 132.0
30.608096219 124.0
30.613020075 125.0
30.617943931 141.0
30.622867787 122.0
30.627791643 152.0
30.632715499 145.0
30.637639355 126.0
30.642563211 136.0
30.647487067 151.0
30.652410923 143.0
30.657334779 115.0
30.662258635 136.0
30.667182491 132.0
30.672106347 124.0
30.677030203 135.0
30.681954059 150.0
30.686877915 135.0
30.691801771 138.0
30.696725627 126.0
30.701649483 120.0
30.706573339 117.0
30.711497195 116.0
30.716421051 116.0
30.721344907 117.0
30.726268763 152.0
30.731192619 116.0
30.736116475 148.0
30.741040331 117.0
30.745964187 124.0
30.750888043 145.0
30.755811900 133.0
30.760735756 131.0
30.765659612 131.0
30.770583468 134.0
30.775507324 132.0
30.780431180 136.0
30.785355036 124.0
30.790278892 97.0
30.795202748 137.0
30.800126604 134.0
30.805050460 120.0
30.809974316 132.0
30.814898172 115.0
30.819822028 127.0
30.824745884 141.0
30.829669740 131.0
30.834593596 134.0
30.839517452 133.0
30.844441308 126.0
30.849365164 151.0
30.854289020 112.0
30.859212876 133.0
30.864136732 122.0
30.869060588 130.0
30.873984444 114.0
30.878908300 121.0
30.883832156 157.0
30.888756012 121.0
30.893679868 140.0
30.898603724 111.0
30.903527580 137.0
30.908451436 122.0
30.913375292 131.0
30.918299148 131.0
30.923223004 127.0
30.928146860 137.0
30.933070716 143.0
30.937994572 139.0
30.942918428 134.0
30.947842284 140.0
30.952766140 119.0
30.957689996 133.0
30.962613852 139.0
30.967537708 138.0
30.972461564 134.0
30.977385420 115.0
30.982309276 126.0
30.987233132 118.0
30.992156988 125.0
30.997080844 108.0
31.002004700 115.0
31.006928556 135.0
31.011852412 144.0
31.016776268 105.0
31.021700124 139.0
31.026623980 111.0
31.031547836 129.0
31.036471692 134.0
31.041395548 120.0
31.046319404 120.0
31.051243260 119.0
31.056167116 119.0
31.061090972 133.0
31.066014828 137.0
31.070938684 134.0
31.075862540 128.0
31.080786396 132.0
31.085710252 139.0
31.090634108 112.0
31.095557964 126.0
31.100481820 144.0
31.105405676 130.0
31.110329532 130.0
31.115253388 145.0
31.120177244 111.0
31.125101100 126.0
31.130024956 154.0
31.134948812 154.0
31.139872668 131.0
31.144796524 134.0
31.149720380 125.0
31.154644236 150.0
31.159568092 155.0
31.164491948 144.0
31.169415804 139.0
31.174339660 143.0
31.179263516 133.0
31.184187372 143.0
31.189111228 124.0
31.194035084 128.0
31.198958940 118.0
31.203882796 132.0
31.208806652 124.0
31.213730508 131.0
31.218654364 145.0
31.223578220 128.0
31.228502076 132.0
31.233425932 126.0
31.238349788 119.0
31.243273644 128.0
31.248197500 125.0
31.253121357 137.0
31.258045213 146.0
31.262969069 135.0
31.267892925 150.0
31.272816781 145.0
31.277740637 120.0
31.282664493 140.0
31.287588349 129.0
31.292512205 123.0
31.297436061 138.0
31.302359917 159.0
31.307283773 110.0
31.312207629 119.0
31.317131485 118.0
31.322055341 131.0
31.326979197 146.0
31.331903053 107.0
31.336826909 121.0
31.341750765 150.0
31.346674621 132.0
31.351598477 131.0
31.356522333 128.0
31.361446189 127.0
31.366370045 103.0
31.371293901 133.0
31.376217757 128.0
31.381141613 137.0
31.386065469 132.0
31.390989325 139.0
31.395913181 139.0
31.400837037 141.0
31.405760893 128.0
31.410684749 127.0
31.415608605 117.0
31.420532461 147.0
31.425456317 129.0
31.430380173 132.0
31.435304029 126.0
31.440227885 119.0
31.445151741 121.0
31.450075597 117.0
31.454999453 126.0
31.459923309 142.0
31.464847165 145.0
31.469771021 114.0
31.474694877 122.0
31.479618733 125.0
31.484542589 135.0
31.489466445 138.0
31.494390301 144.0
31.499314157 112.0
31.504238013 125.0
31.509161869 134.0
31.514085725 120.0
31.519009581 133.0
31.523933437 108.0
31.528857293 122.0
31.533781149 139.0
31.538705005 128.0
31.543628861 142.0
31.548552717 133.0
31.553476573 125.0
31.558400429 132.0
31.563324285 141.0
31.568248141 123.0
31.573171997 135.0
31.578095853 122.0
31.583019709 152.0
31.587943565 125.0
31.592867421 132.0
31.597791277 130.0
31.602715133 143.0
31.607638989 137.0
31.612562845 139.0
31.617486701 136.0
31.622410557 151.0
31.627334413 119.0
31.632258269 128.0
31.637182125 117.0
31.642105981 125.0
31.647029837 139.0
31.651953693 144.0
31.656877549 124.0
31.661801405 121.0
31.666725261 148.0
31.671649117 122.0
31.676572973 137.0
31.681496829 126.0
31.686420685 123.0
31.691344541 142.0
31.696268397 137.0
31.701192253 123.0
31.706116109 139.0
31.711039965 129.0
31.715963821 122.0
31.720887677 140.0
31.725811533 141.0
31.730735389 144.0
31.735659245 120.0
31.740583101 112.0
31.745506957 120.0
31.750430813 119.0
31.755354670 133.0
31.760278526 150.0
31.765202382 133.0
31.770126238 131.0
31.775050094 139.0
31.779973950 154.0
31.784897806 119.0
31.789821662 133.0
31.794745518 127.0
31.799669374 101.0
31.804593230 112.0
31.809517086 133.0
31.814440942 135.0
31.819364798 132.0
31.824288654 125.0
31.829212510 128.0
31.834136366 105.0
31.839060222 138.0
31.843984078 114.0
31.848907934 143.0
31.853831790 135.0
31.858755646 122.0
31.863679502 133.0
31.868603358 115.0
31.873527214 141.0
31.878451070 131.0
31.883374926 125.0
31.888298782 132.0
31.893222638 133.0
31.898146494 117.0
31.903070350 131.0
31.907994206 139.0
31.912918062 122.0
31.917841918 101.0
31.922765774 121.0
31.927689630 126.0
31.932613486 140.0
31.937537342 122.0
31.942461198 118.0
31.947385054 122.0
31.952308910 133.0
31.957232766 145.0
31.962156622 121.0
31.967080478 124.0
31.972004334 128.0
31.976928190 144.0
31.981852046 127.0
31.986775902 129.0
31.991699758 123.0
31.996623614 111.0
32.001547470 120.0
32.006471326 141.0
32.011395182 134.0
32.016319038 121.0
32.021242894 131.0
32.026166750 132.0
32.031090606 139.0
32.036014462 123.0
32.040938318 132.0
32.045862174 124.0
32.050786030 126.0
32.055709886 134.0
32.060633742 128.0
32.065557598 107.0
32.070481454 126.0
32.075405310 123.0
32.080329166 136.0
32.085253022 121.0
32.090176878 117.0
32.095100734 150.0
32.100024590 149.0
32.104948446 114.0
32.109872302 138.0
32.114796158 134.0
32.119720014 128.0
32.124643870 134.0
32.129567726 126.0
32.134491582 139.0
32.139415438 141.0
32.144339294 123.0
32.149263150 96.0
32.154187006 121.0
32.159110862 129.0
32.164034718 139.0
32.168958574 159.0
32.173882430 138.0
32.178806286 140.0
32.183730142 128.0
32.188653998 125.0
32.193577854 138.0
32.198501710 122.0
32.203425566 135.0
32.208349422 144.0
32.213273278 133.0
32.218197134 125.0
32.223120990 130.0
32.228044846 137.0
32.232968702 148.0
32.237892558 130.0
32.242816414 134.0
32.247740270 143.0
32.252664127 148.0
32.257587983 144.0
32.262511839 125.0
32.267435695 141.0
32.272359551 140.0
32.277283407 124.0
32.282207263 137.0
32.287131119 121.0
32.292054975 126.0
32.296978831 128.0
32.301902687 135.0
32.306826543 145.0
32.311750399 130.0
32.316674255 135.0
32.321598111 147.0
32.326521967 138.0
32.331445823 124.0
32.336369679 152.0
32.341293535 113.0
32.346217391 128.0
32.351141247 133.0
32.356065103 130.0
32.360988959 133.0
32.365912815 132.0
32.370836671 134.0
32.375760527 133.0
32.380684383 121.0
32.385608239 109.0
32.390532095 129.0
32.395455951 123.0
32.400379807 120.0
32.405303663 131.0
32.410227519 129.0
32.415151375 137.0
32.420075231 149.0
32.424999087 136.0
32.429922943 124.0
32.434846799 140.0
32.439770655 140.0
32.444694511 118.0
32.449618367 124.0
32.454542223 150.0
32.459466079 136.0
32.464389935 136.0
32.469313791 143.0
32.474237647 133.0
32.479161503 137.0
32.484085359 120.0
32.489009215 139.0
32.493933071 124.0
32.498856927 158.0
32.503780783 131.0
32.508704639 162.0
32.513628495 134.0
32.518552351 137.0
32.523476207 135.0
32.528400063 135.0
32.533323919 158.0
32.538247775 137.0
32.543171631 131.0
32.548095487 152.0
32.553019343 148.0
32.557943199 117.0
32.562867055 117.0
32.567790911 127.0
32.572714767 127.0
32.577638623 111.0
32.582562479 125.0
32.587486335 132.0
32.592410191 118.0
32.597334047 123.0
32.602257903 120.0
32.607181759 155.0
32.612105615 141.0
32.617029471 138.0
32.621953327 134.0
32.626877183 132.0
32.631801039 132.0
32.636724895 129.0
32.641648751 139.0
32.646572607 154.0
32.651496463 127.0
32.656420319 126.0
32.661344175 137.0
32.666268031 140.0
32.671191887 157.0
32.676115743 131.0
32.681039599 145.0
32.685963455 125.0
32.690887311 137.0
32.695811167 147.0
32.700735023 144.0
32.705658879 141.0
32.710582735 132.0
32.715506591 141.0
32.720430447 129.0
32.725354303 136.0
32.730278159 138.0
32.735202015 118.0
32.740125871 142.0
32.745049727 143.0
32.749973583 121.0
32.754897440 135.0
32.759821296 128.0
32.764745152 140.0
32.769669008 109.0
32.774592864 138.0
32.779516720 146.0
32.784440576 149.0
32.789364432 137.0
32.794288288 105.0
32.799212144 129.0
32.804136000 143.0
32.809059856 120.0
32.813983712 139.0
32.818907568 123.0
32.823831424 135.0
32.828755280 137.0
32.833679136 141.0
32.838602992 133.0
32.843526848 138.0
32.848450704 141.0
32.853374560 122.0
32.858298416 140.0
32.863222272 129.0
32.868146128 121.0
32.873069984 136.0
32.877993840 131.0
32.882917696 127.0
32.887841552 112.0
32.892765408 133.0
32.897689264 135.0
32.902613120 143.0
32.907536976 113.0
32.912460832 119.0
32.917384688 109.0
32.922308544 135.0
32.927232400 113.0
32.932156256 146.0
32.937080112 120.0
32.942003968 137.0
32.946927824 131.0
32.951851680 123.0
32.956775536 132.0
32.961699392 139.0
32.966623248 135.0
32.971547104 138.0
32.976470960 113.0
32.981394816 148.0
32.986318672 133.0
32.991242528 130.0
32.996166384 137.0
33.001090240 117.0
33.006014096 137.0
33.010937952 106.0
33.015861808 142.0
33.020785664 136.0
33.025709520 129.0
33.030633376 128.0
33.035557232 121.0
33.040481088 129.0
33.045404944 140.0
33.050328800 132.0
33.055252656 130.0
33.060176512 114.0
33.065100368 129.0
33.070024224 118.0
33.074948080 137.0
33.079871936 121.0
33.084795792 140.0
33.089719648 156.0
33.094643504 122.0
33.099567360 137.0
33.104491216 124.0
33.109415072 135.0
33.114338928 147.0
33.119262784 130.0
33.124186640 134.0
33.129110496 120.0
33.134034352 117.0
33.138958208 145.0
33.143882064 128.0
33.148805920 128.0
33.153729776 120.0
33.158653632 125.0
33.163577488 130.0
33.168501344 128.0
33.173425200 100.0
33.178349056 131.0
33.183272912 146.0
33.188196768 137.0
33.193120624 145.0
33.198044480 141.0
33.202968336 140.0
33.207892192 139.0
33.212816048 97.0
33.217739904 152.0
33.222663760 124.0
33.227587616 121.0
33.232511472 121.0
33.237435328 123.0
33.242359184 156.0
33.247283040 141.0
33.252206897 117.0
33.257130753 126.0
33.262054609 136.0
33.266978465 175.0
33.271902321 139.0
33.276826177 121.0
33.281750033 132.0
33.286673889 131.0
33.291597745 155.0
33.296521601 135.0
33.301445457 113.0
33.306369313 123.0
33.311293169 133.0
33.316217025 121.0
33.321140881 137.0
33.326064737 128.0
33.330988593 127.0
33.335912449 134.0
33.340836305 112.0
33.345760161 132.0
33.350684017 113.0
33.355607873 149.0
33.360531729 126.0
33.365455585 141.0
33.370379441 145.0
33.375303297 136.0
33.380227153 125.0
33.385151009 137.0
33.390074865 126.0
33.394998721 131.0
33.399922577 130.0
33.404846433 152.0
33.409770289 156.0
33.414694145 153.0
33.419618001 136.0
33.424541857 131.0
33.429465713 123.0
33.434389569 132.0
33.439313425 139.0
33.444237281 126.0
33.449161137 124.0
33.454084993 126.0
33.459008849 144.0
33.463932705 143.0
33.468856561 118.0
33.473780417 134.0
33.478704273 153.0
33.483628129 139.0
33.488551985 111.0
33.493475841 138.0
33.498399697 134.0
33.503323553 124.0
33.508247409 127.0
33.513171265 144.0
33.518095121 138.0
33.523018977 148.0
33.527942833 118.0
33.532866689 109.0
33.537790545 130.0
33.542714401 143.0
33.547638257 138.0
33.552562113 133.0
33.557485969 129.0
33.562409825 166.0
33.567333681 137.0
33.572257537 135.0
33.577181393 119.0
33.582105249 129.0
33.587029105 121.0
33.591952961 146.0
33.596876817 133.0
33.601800673 135.0
33.606724529 130.0
33.611648385 113.0
33.616572241 121.0
33.621496097 124.0
33.626419953 132.0
33.631343809 141.0
33.636267665 144.0
33.641191521 156.0
33.646115377 133.0
33.651039233 150.0
33.655963089 120.0
33.660886945 134.0
33.665810801 115.0
33.670734657 142.0
33.675658513 115.0
33.680582369 150.0
33.685506225 135.0
33.690430081 135.0
33.695353937 148.0
33.700277793 159.0
33.705201649 132.0
33.710125505 121.0
33.715049361 161.0
33.719973217 145.0
33.724897073 153.0
33.729820929 145.0
33.734744785 132.0
33.739668641 146.0
33.744592497 109.0
33.749516353 168.0
33.754440210 134.0
33.759364066 167.0
33.764287922 138.0
33.769211778 137.0
33.774135634 137.0
33.779059490 139.0
33.783983346 151.0
33.788907202 165.0
33.793831058 149.0
33.798754914 153.0
33.803678770 122.0
33.808602626 172.0
33.813526482 157.0
33.818450338 133.0
33.823374194 147.0
33.828298050 133.0
33.833221906 150.0
33.838145762 140.0
33.843069618 174.0
33.847993474 157.0
33.852917330 155.0
33.857841186 169.0
33.862765042 147.0
33.867688898 146.0
33.872612754 144.0
33.877536610 163.0
33.882460466 170.0
33.887384322 172.0
33.892308178 187.0
33.897232034 232.0
33.902155890 187.0
33.907079746 258.0
33.912003602 260.0
33.916927458 356.0
33.921851314 415.0
33.926775170 471.0
33.931699026 624.0
33.936622882 772.0
33.941546738 957.0
33.946470594 1095.0
33.951394450 1269.0
33.956318306 1335.0
33.961242162 1344.0
33.966166018 1312.0
33.971089874 1341.0
33.976013730 1309.0
33.980937586 1216.0
33.985861442 1174.0
33.990785298 997.0
33.995709154 840.0
34.000633010 665.0
34.005556866 514.0
34.010480722 446.0
34.015404578 377.0
34.020328434 323.0
34.025252290 319.0
34.030176146 229.0
34.035100002 220.0
34.040023858 232.0
34.044947714 212.0
34.049871570 195.0
34.054795426 183.0
34.059719282 201.0
34.064643138 186.0
34.069566994 176.0
34.074490850 144.0
34.079414706 204.0
34.084338562 155.0
34.089262418 168.0
34.094186274 172.0
34.099110130 171.0
34.104033986 187.0
34.108957842 173.0
34.113881698 166.0
34.118805554 151.0
34.123729410 162.0
34.128653266 160.0
34.133577122 177.0
34.138500978 181.0
34.143424834 173.0
34.148348690 165.0
34.153272546 141.0
34.158196402 173.0
34.163120258 143.0
34.168044114 155.0
34.172967970 161.0
34.177891826 144.0
34.182815682 149.0
34.187739538 140.0
34.192663394 168.0
34.197587250 158.0
34.202511106 149.0
34.207434962 161.0
34.212358818 145.0
34.217282674 165.0
34.222206530 125.0
34.227130386 151.0
34.232054242 184.0
34.236978098 135.0
34.241901954 154.0
34.246825810 138.0
34.251749667 148.0
34.256673523 133.0
34.261597379 158.0
34.266521235 162.0
34.271445091 137.0
34.276368947 136.0
34.281292803 141.0
34.286216659 153.0
34.291140515 157.0
34.296064371 160.0
34.300988227 135.0
34.305912083 154.0
34.310835939 143.0
34.315759795 135.0
34.320683651 136.0
34.325607507 128.0
34.330531363 136.0
34.335455219 160.0
34.340379075 153.0
34.345302931 130.0
34.350226787 136.0
34.355150643 131.0
34.360074499 159.0
34.364998355 131.0
34.369922211 143.0
34.374846067 143.0
34.379769923 132.0
34.384693779 142.0
34.389617635 128.0
34.394541491 125.0
34.399465347 130.0
34.404389203 139.0
34.409313059 153.0
34.414236915 161.0
34.419160771 148.0
34.424084627 168.0
34.429008483 140.0
34.433932339 140.0
34.438856195 144.0
34.443780051 156.0
34.448703907 138.0
34.453627763 152.0
34.458551619 160.0
34.463475475 138.0
34.468399331 169.0
34.473323187 134.0
34.478247043 170.0
34.483170899 146.0
34.488094755 153.0
34.493018611 134.0
34.497942467 151.0
34.502866323 136.0
34.507790179 143.0
34.512714035 149.0
34.517637891 158.0
34.522561747 160.0
34.527485603 141.0
34.532409459 145.0
34.537333315 144.0
34.542257171 163.0
34.547181027 160.0
34.552104883 138.0
34.557028739 145.0
34.561952595 148.0
34.566876451 130.0
34.571800307 155.0
34.576724163 144.0
34.581648019 148.0
34.586571875 135.0
34.591495731 158.0
34.596419587 139.0
34.601343443 149.0
34.606267299 141.0
34.611191155 167.0
34.616115011 132.0
34.621038867 137.0
34.625962723 148.0
34.630886579 140.0
34.635810435 120.0
34.640734291 164.0
34.645658147 140.0
34.650582003 152.0
34.655505859 152.0
34.660429715 144.0
34.665353571 155.0
34.670277427 144.0
34.675201283 138.0
34.680125139 141.0
34.685048995 125.0
34.689972851 145.0
34.694896707 154.0
34.699820563 152.0
34.704744419 156.0
34.709668275 125.0
34.714592131 157.0
34.719515987 153.0
34.724439843 167.0
34.729363699 174.0
34.734287555 141.0
34.739211411 154.0
34.744135267 126.0
34.749059123 141.0
34.753982980 130.0
34.758906836 162.0
34.763830692 142.0
34.768754548 136.0
34.773678404 131.0
34.778602260 144.0
34.783526116 141.0
34.788449972 165.0
34.793373828 172.0
34.798297684 161.0
34.803221540 138.0
34.808145396 138.0
34.813069252 133.0
34.817993108 157.0
34.822916964 129.0
34.827840820 167.0
34.832764676 157.0
34.837688532 150.0
34.842612388 133.0
34.847536244 148.0
34.852460100 151.0
34.857383956 161.0
34.862307812 138.0
34.867231668 147.0
34.872155524 146.0
34.877079380 151.0
34.882003236 160.0
34.886927092 146.0
34.891850948 162.0
34.896774804 158.0
34.901698660 139.0
34.906622516 151.0
34.911546372 151.0
34.916470228 141.0
34.921394084 150.0
34.926317940 159.0
34.931241796 147.0
34.936165652 148.0
34.941089508 163.0
34.946013364 139.0
34.950937220 148.0
34.955861076 131.0
34.960784932 133.0
34.965708788 166.0
34.970632644 138.0
34.975556500 148.0
34.980480356 148.0
34.985404212 162.0
34.990328068 140.0
34.995251924 156.0
35.000175780 135.0
35.005099636 155.0
35.010023492 148.0
35.014947348 162.0
35.019871204 154.0
35.024795060 161.0
35.029718916 156.0
35.034642772 178.0
35.039566628 160.0
35.044490484 154.0
35.049414340 150.0
35.054338196 143.0
35.059262052 154.0
35.064185908 147.0
35.069109764 155.0
35.074033620 139.0
35.078957476 166.0
35.083881332 148.0
35.088805188 148.0
35.093729044 156.0
35.098652900 158.0
35.103576756 171.0
35.108500612 156.0
35.113424468 168.0
35.118348324 154.0
35.123272180 165.0
35.128196036 160.0
35.133119892 141.0
35.138043748 144.0
35.142967604 137.0
35.147891460 147.0
35.152815316 146.0
35.157739172 148.0
35.162663028 167.0
35.167586884 150.0
35.172510740 193.0
35.177434596 159.0
35.182358452 154.0
35.187282308 139.0
35.192206164 137.0
35.197130020 162.0
35.202053876 178.0
35.206977732 157.0
35.211901588 179.0
35.216825444 146.0
35.221749300 171.0
35.226673156 139.0
35.231597012 161.0
35.236520868 180.0
35.241444724 173.0
35.246368580 157.0
35.251292437 148.0
35.256216293 164.0
35.261140149 157.0
35.266064005 169.0
35.270987861 176.0
35.275911717 158.0
35.280835573 173.0
35.285759429 137.0
35.290683285 185.0
35.295607141 187.0
35.300530997 154.0
35.305454853 174.0
35.310378709 175.0
35.315302565 145.0
35.320226421 163.0
35.325150277 155.0
35.330074133 178.0
35.334997989 179.0
35.339921845 194.0
35.344845701 166.0
35.349769557 177.0
35.354693413 172.0
35.359617269 164.0
35.364541125 169.0
35.369464981 160.0
35.374388837 146.0
35.379312693 184.0
35.384236549 188.0
35.389160405 150.0
35.394084261 145.0
35.399008117 189.0
35.403931973 161.0
35.408855829 167.0
35.413779685 145.0
35.418703541 175.0
35.423627397 151.0
35.428551253 171.0
35.433475109 181.0
35.438398965 163.0
35.443322821 164.0
35.448246677 183.0
35.453170533 166.0
35.458094389 174.0
35.463018245 176.0
35.467942101 177.0
35.472865957 185.0
35.477789813 182.0
35.482713669 189.0
35.487637525 171.0
35.492561381 160.0
35.497485237 147.0
35.502409093 181.0
35.507332949 197.0
35.512256805 182.0
35.517180661 175.0
35.522104517 180.0
35.527028373 217.0
35.531952229 182.0
35.536876085 188.0
35.541799941 195.0
35.546723797 202.0
35.551647653 201.0
35.556571509 207.0
35.561495365 214.0
35.566419221 199.0
35.571343077 213.0
35.576266933 207.0
35.581190789 198.0
35.586114645 222.0
35.591038501 197.0
35.595962357 207.0
35.600886213 218.0
35.605810069 210.0
35.610733925 225.0
35.615657781 198.0
35.620581637 209.0
35.625505493 229.0
35.630429349 233.0
35.635353205 212.0
35.640277061 221.0
35.645200917 199.0
35.650124773 218.0
35.655048629 229.0
35.659972485 198.0
35.664896341 263.0
35.669820197 261.0
35.674744053 219.0
35.679667909 244.0
35.684591765 261.0
35.689515621 204.0
35.694439477 204.0
35.699363333 216.0
35.704287189 230.0
35.709211045 237.0
35.714134901 242.0
35.719058757 218.0
35.723982613 232.0
35.728906469 231.0
35.733830325 278.0
35.738754181 260.0
35.743678037 222.0
35.748601893 234.0
35.753525750 232.0
35.758449606 228.0
35.763373462 289.0
35.768297318 239.0
35.773221174 260.0
35.778145030 279.0
35.783068886 274.0
35.787992742 274.0
35.792916598 261.0
35.797840454 276.0
35.802764310 287.0
35.807688166 267.0
35.812612022 320.0
35.817535878 323.0
35.822459734 323.0
35.827383590 320.0
35.832307446 345.0
35.837231302 332.0
35.842155158 335.0
35.847079014 368.0
35.852002870 392.0
35.856926726 390.0
35.861850582 393.0
35.866774438 425.0
35.871698294 404.0
35.876622150 412.0
35.881546006 486.0
35.886469862 515.0
35.891393718 493.0
35.896317574 494.0
35.901241430 578.0
35.906165286 636.0
35.911089142 611.0
35.916012998 625.0
35.920936854 650.0
35.925860710 694.0
35.930784566 763.0
35.935708422 704.0
35.940632278 786.0
35.945556134 764.0
35.950479990 872.0
35.955403846 837.0
35.960327702 856.0
35.965251558 920.0
35.970175414 966.0
35.975099270 944.0
35.980023126 1034.0
35.984946982 1042.0
35.989870838 1079.0
35.994794694 1139.0
35.999718550 1169.0
36.004642406 1271.0
36.009566262 1198.0
36.014490118 1271.0
36.019413974 1354.0
36.024337830 1371.0
36.029261686 1392.0
36.034185542 1405.0
36.039109398 1454.0
36.044033254 1435.0
36.048957110 1502.0
36.053880966 1594.0
36.058804822 1584.0
36.063728678 1580.0
36.068652534 1690.0
36.073576390 1674.0
36.078500246 1828.0
36.083424102 1765.0
36.088347958 1765.0
36.093271814 1831.0
36.098195670 1872.0
36.103119526 1858.0
36.108043382 1917.0
36.112967238 1865.0
36.117891094 1944.0
36.122814950 1921.0
36.127738806 1931.0
36.132662662 1962.0
36.137586518 1999.0
36.142510374 1946.0
36.147434230 2087.0
36.152358086 2014.0
36.157281942 2013.0
36.162205798 2024.0
36.167129654 2002.0
36.172053510 2091.0
36.176977366 2071.0
36.181901222 2053.0
36.186825078 2000.0
36.191748934 2052.0
36.196672790 1912.0
36.201596646 1950.0
36.206520502 1979.0
36.211444358 1954.0
36.216368214 1909.0
36.221292070 1885.0
36.226215926 1848.0
36.231139782 1911.0
36.236063638 1888.0
36.240987494 1848.0
36.245911350 1755.0
36.250835207 1793.0
36.255759063 1756.0
36.260682919 1782.0
36.265606775 1654.0
36.270530631 1662.0
36.275454487 1652.0
36.280378343 1580.0
36.285302199 1621.0
36.290226055 1505.0
36.295149911 1466.0
36.300073767 1515.0
36.304997623 1450.0
36.309921479 1362.0
36.314845335 1348.0
36.319769191 1372.0
36.324693047 1336.0
36.329616903 1247.0
36.334540759 1221.0
36.339464615 1213.0
36.344388471 1179.0
36.349312327 1149.0
36.354236183 1091.0
36.359160039 1085.0
36.364083895 1035.0
36.369007751 1045.0
36.373931607 995.0
36.378855463 924.0
36.383779319 883.0
36.388703175 894.0
36.393627031 821.0
36.398550887 837.0
36.403474743 795.0
36.408398599 742.0
36.413322455 775.0
36.418246311 725.0
36.423170167 631.0
36.428094023 637.0
36.433017879 609.0
36.437941735 655.0
36.442865591 678.0
36.447789447 559.0
36.452713303 550.0
36.457637159 563.0
36.462561015 550.0
36.467484871 532.0
36.472408727 505.0
36.477332583 474.0
36.482256439 477.0
36.487180295 514.0
36.492104151 421.0
36.497028007 453.0
36.501951863 423.0
36.506875719 435.0
36.511799575 436.0
36.516723431 400.0
36.521647287 409.0
36.526571143 371.0
36.531494999 400.0
36.536418855 367.0
36.541342711 419.0
36.546266567 349.0
36.551190423 404.0
36.556114279 417.0
36.561038135 368.0
36.565961991 428.0
36.570885847 376.0
36.575809703 348.0
36.580733559 336.0
36.585657415 342.0
36.590581271 376.0
36.595505127 345.0
36.600428983 368.0
36.605352839 363.0
36.610276695 377.0
36.615200551 355.0
36.620124407 369.0
36.625048263 345.0
36.629972119 395.0
36.634895975 365.0
36.639819831 361.0
36.644743687 365.0
36.649667543 362.0
36.654591399 376.0
36.659515255 382.0
36.664439111 374.0
36.669362967 416.0
36.674286823 417.0
36.679210679 404.0
36.684134535 380.0
36.689058391 377.0
36.693982247 400.0
36.698906103 385.0
36.703829959 363.0
36.708753815 391.0
36.713677671 420.0
36.718601527 382.0
36.723525383 364.0
36.728449239 427.0
36.733373095 387.0
36.738296951 429.0
36.743220807 381.0
36.748144663 408.0
36.753068520 396.0
36.757992376 450.0
36.762916232 381.0
36.767840088 422.0
36.772763944 432.0
36.777687800 392.0
36.782611656 372.0
36.787535512 420.0
36.792459368 451.0
36.797383224 402.0
36.802307080 424.0
36.807230936 399.0
36.812154792 386.0
36.817078648 429.0
36.822002504 433.0
36.826926360 426.0
36.831850216 415.0
36.836774072 450.0
36.841697928 411.0
36.846621784 420.0
36.851545640 460.0
36.856469496 430.0
36.861393352 465.0
36.866317208 431.0
36.871241064 443.0
36.876164920 469.0
36.881088776 465.0
36.886012632 448.0
36.890936488 458.0
36.895860344 461.0
36.900784200 435.0
36.905708056 453.0
36.910631912 477.0
36.915555768 494.0
36.920479624 467.0
36.925403480 511.0
36.930327336 473.0
36.935251192 504.0
36.940175048 498.0
36.945098904 514.0
36.950022760 501.0
36.954946616 515.0
36.959870472 523.0
36.964794328 507.0
36.969718184 501.0
36.974642040 507.0
36.979565896 518.0
36.984489752 532.0
36.989413608 506.0
36.994337464 524.0
36.999261320 515.0
37.004185176 561.0
37.009109032 537.0
37.014032888 536.0
37.018956744 540.0
37.023880600 535.0
37.028804456 587.0
37.033728312 559.0
37.038652168 564.0
37.043576024 584.0
37.048499880 589.0
37.053423736 556.0
37.058347592 572.0
37.063271448 521.0
37.068195304 645.0
37.073119160 564.0
37.078043016 600.0
37.082966872 601.0
37.087890728 579.0
37.092814584 578.0
37.097738440 584.0
37.102662296 591.0
37.107586152 616.0
37.112510008 616.0
37.117433864 629.0
37.122357720 626.0
37.127281576 653.0
37.132205432 586.0
37.137129288 643.0
37.142053144 620.0
37.146977000 642.0
37.151900856 722.0
37.156824712 650.0
37.161748568 621.0
37.166672424 667.0
37.171596280 682.0
37.176520136 716.0
37.181443992 674.0
37.186367848 715.0
37.191291704 695.0
37.196215560 748.0
37.201139416 706.0
37.206063272 722.0
37.210987128 754.0
37.215910984 749.0
37.220834840 780.0
37.225758696 733.0
37.230682552 709.0
37.235606408 714.0
37.240530264 796.0
37.245454120 685.0
37.250377977 716.0
37.255301833 758.0
37.260225689 811.0
37.265149545 808.0
37.270073401 802.0
37.274997257 806.0
37.279921113 831.0
37.284844969 910.0
37.289768825 847.0
37.294692681 891.0
37.299616537 883.0
37.304540393 833.0
37.309464249 913.0
37.314388105 924.0
37.319311961 893.0
37.324235817 925.0
37.329159673 929.0
37.334083529 974.0
37.339007385 1059.0
37.343931241 1062.0
37.348855097 1010.0
37.353778953 1004.0
37.358702809 1031.0
37.363626665 1082.0
37.368550521 1141.0
37.373474377 1089.0
37.378398233 1146.0
37.383322089 1139.0
37.388245945 1144.0
37.393169801 1194.0
37.398093657 1216.0
37.403017513 1135.0
37.407941369 1271.0
37.412865225 1242.0
37.417789081 1308.0
37.422712937 1381.0
37.427636793 1412.0
37.432560649 1407.0
37.437484505 1406.0
37.442408361 1475.0
37.447332217 1458.0
37.452256073 1522.0
37.457179929 1546.0
37.462103785 1688.0
37.467027641 1620.0
37.471951497 1718.0
37.476875353 1774.0
37.481799209 1787.0
37.486723065 1944.0
37.491646921 2138.0
37.496570777 2140.0
37.501494633 2342.0
37.506418489 2642.0
37.511342345 2877.0
37.516266201 3092.0
37.521190057 3319.0
37.526113913 3601.0
37.531037769 3929.0
37.535961625 4249.0
37.540885481 4555.0
37.545809337 4867.0
37.550733193 5019.0
37.555657049 5155.0
37.560580905 5035.0
37.565504761 5388.0
37.570428617 5298.0
37.575352473 5308.0
37.580276329 5408.0
37.585200185 5230.0
37.590124041 5245.0
37.595047897 5471.0
37.599971753 5575.0
37.604895609 5674.0
37.609819465 5795.0
37.614743321 5967.0
37.619667177 6436.0
37.624591033 6858.0
37.629514889 7553.0
37.634438745 8442.0
37.639362601 9250.0
37.644286457 10499.0
37.649210313 12130.0
37.654134169 14281.0
37.659058025 16847.0
37.663981881 20882.0
37.668905737 25911.0
37.673829593 34824.0
37.678753449 48838.0
37.683677305 76778.0
37.688601161 125643.0
37.693525017 197105.0
37.698448873 262996.0
37.703372729 307735.0
37.708296585 333137.0
37.713220441 346786.0
37.718144297 354946.0
37.723068153 359047.0
37.727992009 359919.0
37.732915865 351265.0
37.737839721 333817.0
37.742763577 294276.0
37.747687433 227637.0
37.752611290 154332.0
37.757535146 99983.0
37.762459002 70406.0
37.767382858 53988.0
37.772306714 47480.0
37.777230570 49267.0
37.782154426 60613.0
37.787078282 84257.0
37.792002138 113440.0
37.796925994 142311.0
37.801849850 160695.0
37.806773706 172277.0
37.811697562 177881.0
37.816621418 180505.0
37.821545274 180507.0
37.826469130 178184.0
37.831392986 172464.0
37.836316842 159114.0
37.841240698 137293.0
37.846164554 104307.0
37.851088410 73077.0
37.856012266 48092.0
37.860936122 32428.0
37.865859978 23155.0
37.870783834 17657.0
37.875707690 13841.0
37.880631546 11367.0
37.885555402 9576.0
37.890479258 8313.0
37.895403114 7491.0
37.900326970 6793.0
37.905250826 6166.0
37.910174682 5775.0
37.915098538 5132.0
37.920022394 4701.0
37.924946250 4393.0
37.929870106 4200.0
37.934793962 4019.0
37.939717818 3714.0
37.944641674 3464.0
37.949565530 3335.0
37.954489386 3202.0
37.959413242 3044.0
37.964337098 2875.0
37.969260954 2746.0
37.974184810 2582.0
37.979108666 2565.0
37.984032522 2430.0
37.988956378 2374.0
37.993880234 2230.0
37.998804090 2160.0
38.003727946 2140.0
38.008651802 2033.0
38.013575658 1921.0
38.018499514 1929.0
38.023423370 1872.0
38.028347226 1784.0
38.033271082 1729.0
38.038194938 1688.0
38.043118794 1725.0
38.048042650 1624.0
38.052966506 1580.0
38.057890362 1536.0
38.062814218 1480.0
38.067738074 1433.0
38.072661930 1433.0
38.077585786 1386.0
38.082509642 1395.0
38.087433498 1353.0
38.092357354 1257.0
38.097281210 1360.0
38.102205066 1237.0
38.107128922 1297.0
38.112052778 1193.0
38.116976634 1220.0
38.121900490 1155.0
38.126824346 1111.0
38.131748202 1153.0
38.136672058 1084.0
38.141595914 1092.0
38.146519770 1033.0
38.151443626 1009.0
38.156367482 1006.0
38.161291338 961.0
38.166215194 900.0
38.171139050 925.0
38.176062906 932.0
38.180986762 938.0
38.185910618 896.0
38.190834474 853.0
38.195758330 836.0
38.200682186 837.0
38.205606042 827.0
38.210529898 862.0
38.215453754 782.0
38.220377610 772.0
38.225301466 767.0
38.230225322 808.0
38.235149178 761.0
38.240073034 715.0
38.244996890 760.0
38.249920747 736.0
38.254844603 698.0
38.259768459 688.0
38.264692315 656.0
38.269616171 639.0
38.274540027 624.0
38.279463883 622.0
38.284387739 646.0
38.289311595 580.0
38.294235451 636.0
38.299159307 580.0
38.304083163 590.0
38.309007019 571.0
38.313930875 578.0
38.318854731 558.0
38.323778587 498.0
38.328702443 587.0
38.333626299 578.0
38.338550155 548.0
38.343474011 508.0
38.348397867 536.0
38.353321723 484.0
38.358245579 540.0
38.363169435 479.0
38.368093291 511.0
38.373017147 457.0
38.377941003 500.0
38.382864859 460.0
38.387788715 455.0
38.392712571 444.0
38.397636427 453.0
38.402560283 396.0
38.407484139 454.0
38.412407995 431.0
38.417331851 442.0
38.422255707 434.0
38.427179563 393.0
38.432103419 415.0
38.437027275 397.0
38.441951131 373.0
38.446874987 393.0
38.451798843 390.0
38.456722699 396.0
38.461646555 392.0
38.466570411 374.0
38.471494267 360.0
38.476418123 380.0
38.481341979 408.0
38.486265835 317.0
38.491189691 355.0
38.496113547 320.0
38.501037403 318.0
38.505961259 354.0
38.510885115 298.0
38.515808971 344.0
38.520732827 323.0
38.525656683 333.0
38.530580539 344.0
38.535504395 327.0
38.540428251 297.0
38.545352107 323.0
38.550275963 293.0
38.555199819 351.0
38.560123675 314.0
38.565047531 330.0
38.569971387 309.0
38.574895243 298.0
38.579819099 295.0
38.584742955 287.0
38.589666811 265.0
38.594590667 313.0
38.599514523 322.0
38.604438379 296.0
38.609362235 287.0
38.614286091 265.0
38.619209947 272.0
38.624133803 278.0
38.629057659 276.0
38.633981515 215.0
38.638905371 272.0
38.643829227 235.0
38.648753083 227.0
38.653676939 271.0
38.658600795 283.0
38.663524651 265.0
38.668448507 261.0
38.673372363 235.0
38.678296219 225.0
38.683220075 261.0
38.688143931 269.0
38.693067787 210.0
38.697991643 256.0
38.702915499 283.0
38.707839355 226.0
38.712763211 219.0
38.717687067 210.0
38.722610923 223.0
38.727534779 228.0
38.732458635 219.0
38.737382491 231.0
38.742306347 215.0
38.747230203 224.0
38.752154060 260.0
38.757077916 220.0
38.762001772 232.0
38.766925628 229.0
38.771849484 214.0
38.776773340 232.0
38.781697196 218.0
38.786621052 200.0
38.791544908 222.0
38.796468764 193.0
38.801392620 228.0
38.806316476 216.0
38.811240332 215.0
38.816164188 204.0
38.821088044 216.0
38.826011900 179.0
38.830935756 190.0
38.835859612 205.0
38.840783468 257.0
38.845707324 190.0
38.850631180 205.0
38.855555036 209.0
38.860478892 198.0
38.865402748 226.0
38.870326604 222.0
38.875250460 199.0
38.880174316 216.0
38.885098172 202.0
38.890022028 185.0
38.894945884 169.0
38.899869740 194.0
38.904793596 184.0
38.909717452 199.0
38.914641308 212.0
38.919565164 211.0
38.924489020 195.0
38.929412876 205.0
38.934336732 177.0
38.939260588 193.0
38.944184444 173.0
38.949108300 173.0
38.954032156 202.0
38.958956012 193.0
38.963879868 171.0
38.968803724 197.0
38.973727580 185.0
38.978651436 197.0
38.983575292 209.0
38.988499148 210.0
38.993423004 201.0
38.998346860 183.0
39.003270716 204.0
39.008194572 175.0
39.013118428 193.0
39.018042284 185.0
39.022966140 140.0
39.027889996 189.0
39.032813852 149.0
39.037737708 185.0
39.042661564 197.0
39.047585420 193.0
39.052509276 161.0
39.057433132 194.0
39.062356988 217.0
39.067280844 186.0
39.072204700 159.0
39.077128556 170.0
39.082052412 165.0
39.086976268 164.0
39.091900124 182.0
39.096823980 179.0
39.101747836 162.0
39.106671692 166.0
39.111595548 152.0
39.116519404 163.0
39.121443260 175.0
39.126367116 152.0
39.131290972 186.0
39.136214828 182.0
39.141138684 163.0
39.146062540 158.0
39.150986396 180.0
39.155910252 176.0
39.160834108 168.0
39.165757964 162.0
39.170681820 177.0
39.175605676 163.0
39.180529532 184.0
39.185453388 170.0
39.190377244 177.0
39.195301100 156.0
39.200224956 171.0
39.205148812 176.0
39.210072668 164.0
39.214996524 182.0
39.219920380 163.0
39.224844236 172.0
39.229768092 146.0
39.234691948 147.0
39.239615804 151.0
39.244539660 181.0
39.249463517 139.0
39.254387373 154.0
39.259311229 158.0
39.264235085 178.0
39.269158941 146.0
39.274082797 174.0
39.279006653 171.0
39.283930509 201.0
39.288854365 174.0
39.293778221 164.0
39.298702077 133.0
39.303625933 167.0
39.308549789 166.0
39.313473645 148.0
39.318397501 171.0
39.323321357 142.0
39.328245213 153.0
39.333169069 172.0
39.338092925 165.0
39.343016781 137.0
39.347940637 170.0
39.352864493 151.0
39.357788349 165.0
39.362712205 166.0
39.367636061 150.0
39.372559917 140.0
39.377483773 157.0
39.382407629 153.0
39.387331485 150.0
39.392255341 161.0
39.397179197 163.0
39.402103053 136.0
39.407026909 157.0
39.411950765 157.0
39.416874621 165.0
39.421798477 155.0
39.426722333 133.0
39.431646189 159.0
39.436570045 151.0
39.441493901 142.0
39.446417757 173.0
39.451341613 145.0
39.456265469 150.0
39.461189325 139.0
39.466113181 149.0
39.471037037 141.0
39.475960893 167.0
39.480884749 144.0
39.485808605 150.0
39.490732461 153.0
39.495656317 130.0
39.500580173 139.0
39.505504029 110.0
39.510427885 149.0
39.515351741 194.0
39.520275597 171.0
39.525199453 145.0
39.530123309 159.0
39.535047165 170.0
39.539971021 142.0
39.544894877 152.0
39.549818733 123.0
39.554742589 149.0
39.559666445 175.0
39.564590301 169.0
39.569514157 134.0
39.574438013 158.0
39.579361869 132.0
39.584285725 151.0
39.589209581 155.0
39.594133437 136.0
39.599057293 160.0
39.603981149 139.0
39.608905005 139.0
39.613828861 156.0
39.618752717 142.0
39.623676573 150.0
39.628600429 170.0
39.633524285 151.0
39.638448141 157.0
39.643371997 158.0
39.648295853 136.0
39.653219709 155.0
39.658143565 128.0
39.663067421 147.0
39.667991277 127.0
39.672915133 142.0
39.677838989 164.0
39.682762845 139.0
39.687686701 159.0
39.692610557 153.0
39.697534413 130.0
39.702458269 143.0
39.707382125 147.0
39.712305981 152.0
39.717229837 159.0
39.722153693 159.0
39.727077549 144.0
39.732001405 118.0
39.736925261 143.0
39.741849117 152.0
39.746772973 126.0
39.751696830 132.0
39.756620686 150.0
39.761544542 162.0
39.766468398 133.0
39.771392254 159.0
39.776316110 153.0
39.781239966 156.0
39.786163822 135.0
39.791087678 161.0
39.796011534 166.0
39.800935390 155.0
39.805859246 150.0
39.810783102 142.0
39.815706958 158.0
39.820630814 133.0
39.825554670 132.0
39.830478526 160.0
39.835402382 145.0
39.840326238 132.0
39.845250094 157.0
39.850173950 149.0
39.855097806 127.0
39.860021662 131.0
39.864945518 144.0
39.869869374 161.0
39.874793230 140.0
39.879717086 133.0
39.884640942 158.0
39.889564798 131.0
39.894488654 153.0
39.899412510 156.0
39.904336366 143.0
39.909260222 131.0
39.914184078 128.0
39.919107934 134.0
39.924031790 157.0
39.928955646 149.0
39.933879502 125.0
39.938803358 124.0
39.943727214 154.0
39.948651070 125.0
39.953574926 152.0
39.958498782 124.0
39.963422638 138.0
39.968346494 159.0
39.973270350 124.0
39.978194206 133.0
39.983118062 135.0
39.988041918 151.0
39.992965774 160.0
39.997889630 132.0
