45.002461930 113.0
45.007385786 87.0
45.012309642 133.0
45.017233498 127.0
45.022157354 127.0
45.027081210 114.0
45.032005066 115.0
45.036928922 129.0
45.041852778 131.0
45.046776634 116.0
45.051700490 112.0
45.056624346 126.0
45.061548202 126.0
45.066472058 120.0
45.071395914 126.0
45.076319770 131.0
45.081243626 105.0
45.086167482 112.0
45.091091338 123.0
45.096015194 120.0
45.100939050 130.0
45.105862906 108.0
45.110786762 126.0
45.115710618 141.0
45.120634474 112.0
45.125558330 108.0
45.130482186 113.0
45.135406042 118.0
45.140329898 123.0
45.145253754 119.0
45.150177610 111.0
45.155101466 127.0
45.160025322 110.0
45.164949178 121.0
45.169873034 125.0
45.174796890 104.0
45.179720746 117.0
45.184644602 117.0
45.189568458 106.0
45.194492314 102.0
45.199416170 110.0
45.204340026 112.0
45.209263882 119.0
45.214187738 124.0
45.219111594 121.0
45.224035450 125.0
45.228959306 112.0
45.233883162 130.0
45.238807018 103.0
45.243730874 138.0
45.248654730 123.0
45.253578587 116.0
45.258502443 130.0
45.263426299 112.0
45.268350155 103.0
45.273274011 97.0
45.278197867 117.0
45.283121723 120.0
45.288045579 133.0
45.292969435 114.0
45.297893291 108.0
45.302817147 108.0
45.307741003 127.0
45.312664859 118.0
45.317588715 110.0
45.322512571 114.0
45.327436427 107.0
45.332360283 115.0
45.337284139 110.0
45.342207995 113.0
45.347131851 102.0
45.352055707 88.0
45.356979563 119.0
45.361903419 116.0
45.366827275 117.0
45.371751131 113.0
45.376674987 99.0
45.381598843 102.0
45.386522699 125.0
45.391446555 110.0
45.396370411 100.0
45.401294267 103.0
45.406218123 110.0
45.411141979 116.0
45.416065835 111.0
45.420989691 130.0
45.425913547 103.0
45.430837403 107.0
45.435761259 107.0
45.440685115 96.0
45.445608971 128.0
45.450532827 121.0
45.455456683 117.0
45.460380539 107.0
45.465304395 112.0
45.470228251 115.0
45.475152107 118.0
45.480075963 115.0
45.484999819 116.0
45.489923675 112.0
45.494847531 115.0
45.499771387 130.0
45.504695243 107.0
45.509619099 125.0
45.514542955 117.0
45.519466811 117.0
45.524390667 112.0
45.529314523 121.0
45.534238379 101.0
45.539162235 137.0
45.544086091 128.0
45.549009947 104.0
45.553933803 111.0
45.558857659 120.0
45.563781515 112.0
45.568705371 103.0
45.573629227 114.0
45.578553083 123.0
45.583476939 109.0
45.588400795 123.0
45.593324651 121.0
45.598248507 101.0
45.603172363 102.0
45.608096219 131.0
45.613020075 107.0
45.617943931 116.0
45.622867787 98.0
45.627791643 102.0
45.632715499 130.0
45.637639355 110.0
45.642563211 107.0
45.647487067 112.0
45.652410923 96.0
45.657334779 126.0
45.662258635 107.0
45.667182491 112.0
45.672106347 117.0
45.677030203 108.0
45.681954059 117.0
45.686877915 120.0
45.691801771 105.0
45.696725627 117.0
45.701649483 136.0
45.706573339 111.0
45.711497195 104.0
45.716421051 122.0
45.721344907 112.0
45.726268763 135.0
45.731192619 108.0
45.736116475 136.0
45.741040331 123.0
45.745964187 99.0
45.750888043 111.0
45.755811900 97.0
45.760735756 119.0
45.765659612 111.0
45.770583468 122.0
45.775507324 106.0
45.780431180 124.0
45.785355036 120.0
45.790278892 110.0
45.795202748 110.0
45.800126604 120.0
45.805050460 113.0
45.809974316 118.0
45.814898172 103.0
45.819822028 103.0
45.824745884 127.0
45.829669740 100.0
45.834593596 118.0
45.839517452 107.0
45.844441308 106.0
45.849365164 86.0
45.854289020 110.0
45.859212876 102.0
45.864136732 136.0
45.869060588 118.0
45.873984444 119.0
45.878908300 126.0
45.883832156 120.0
45.888756012 111.0
45.893679868 123.0
45.898603724 98.0
45.903527580 108.0
45.908451436 98.0
45.913375292 119.0
45.918299148 109.0
45.923223004 97.0
45.928146860 110.0
45.933070716 129.0
45.937994572 119.0
45.942918428 111.0
45.947842284 117.0
45.952766140 107.0
45.957689996 120.0
45.962613852 97.0
45.967537708 125.0
45.972461564 127.0
45.977385420 102.0
45.982309276 114.0
45.987233132 107.0
45.992156988 88.0
45.997080844 116.0
46.002004700 125.0
46.006928556 120.0
46.011852412 123.0
46.016776268 124.0
46.021700124 102.0
46.026623980 124.0
46.031547836 117.0
46.036471692 106.0
46.041395548 115.0
46.046319404 108.0
46.051243260 119.0
46.056167116 104.0
46.061090972 109.0
46.066014828 116.0
46.070938684 120.0
46.075862540 116.0
46.080786396 98.0
46.085710252 93.0
46.090634108 94.0
46.095557964 102.0
46.100481820 123.0
46.105405676 114.0
46.110329532 108.0
46.115253388 140.0
46.120177244 99.0
46.125101100 117.0
46.130024956 126.0
46.134948812 126.0
46.139872668 118.0
46.144796524 123.0
46.149720380 118.0
46.154644236 102.0
46.159568092 100.0
46.164491948 108.0
46.169415804 145.0
46.174339660 115.0
46.179263516 118.0
46.184187372 130.0
46.189111228 96.0
46.194035084 117.0
46.198958940 116.0
46.203882796 106.0
46.208806652 109.0
46.213730508 98.0
46.218654364 109.0
46.223578220 117.0
46.228502076 108.0
46.233425932 99.0
46.238349788 88.0
46.243273644 120.0
46.248197500 109.0
46.253121357 121.0
46.258045213 90.0
46.262969069 96.0
46.267892925 99.0
46.272816781 128.0
46.277740637 125.0
46.282664493 126.0
46.287588349 116.0
46.292512205 127.0
46.297436061 115.0
46.302359917 131.0
46.307283773 103.0
46.312207629 118.0
46.317131485 100.0
46.322055341 138.0
46.326979197 96.0
46.331903053 118.0
46.336826909 128.0
46.341750765 127.0
46.346674621 106.0
46.351598477 113.0
46.356522333 116.0
46.361446189 106.0
46.366370045 120.0
46.371293901 99.0
46.376217757 110.0
46.381141613 115.0
46.386065469 121.0
46.390989325 101.0
46.395913181 107.0
46.400837037 121.0
46.405760893 132.0
46.410684749 99.0
46.415608605 104.0
46.420532461 98.0
46.425456317 135.0
46.430380173 102.0
46.435304029 105.0
46.440227885 128.0
46.445151741 126.0
46.450075597 123.0
46.454999453 134.0
46.459923309 102.0
46.464847165 101.0
46.469771021 139.0
46.474694877 93.0
46.479618733 101.0
46.484542589 103.0
46.489466445 115.0
46.494390301 115.0
46.499314157 115.0
46.504238013 108.0
46.509161869 104.0
46.514085725 117.0
46.519009581 105.0
46.523933437 94.0
46.528857293 112.0
46.533781149 122.0
46.538705005 110.0
46.543628861 117.0
46.548552717 107.0
46.553476573 94.0
46.558400429 113.0
46.563324285 122.0
46.568248141 119.0
46.573171997 139.0
46.578095853 129.0
46.583019709 108.0
46.587943565 119.0
46.592867421 102.0
46.597791277 107.0
46.602715133 109.0
46.607638989 121.0
46.612562845 108.0
46.617486701 114.0
46.622410557 110.0
46.627334413 114.0
46.632258269 132.0
46.637182125 127.0
46.642105981 118.0
46.647029837 114.0
46.651953693 134.0
46.656877549 136.0
46.661801405 100.0
46.666725261 126.0
46.671649117 116.0
46.676572973 116.0
46.681496829 122.0
46.686420685 123.0
46.691344541 144.0
46.696268397 138.0
46.701192253 144.0
46.706116109 119.0
46.711039965 132.0
46.715963821 124.0
46.720887677 108.0
46.725811533 115.0
46.730735389 156.0
46.735659245 119.0
46.740583101 123.0
46.745506957 124.0
46.750430813 125.0
46.755354670 124.0
46.760278526 140.0
46.765202382 122.0
46.770126238 125.0
46.775050094 118.0
46.779973950 135.0
46.784897806 124.0
46.789821662 129.0
46.794745518 121.0
46.799669374 127.0
46.804593230 128.0
46.809517086 124.0
46.814440942 152.0
46.819364798 110.0
46.824288654 120.0
46.829212510 133.0
46.834136366 124.0
46.839060222 109.0
46.843984078 130.0
46.848907934 125.0
46.853831790 107.0
46.858755646 139.0
46.863679502 120.0
46.868603358 129.0
46.873527214 128.0
46.878451070 106.0
46.883374926 143.0
46.888298782 114.0
46.893222638 127.0
46.898146494 138.0
46.903070350 137.0
46.907994206 129.0
46.912918062 135.0
46.917841918 128.0
46.922765774 150.0
46.927689630 121.0
46.932613486 120.0
46.937537342 117.0
46.942461198 142.0
46.947385054 154.0
46.952308910 141.0
46.957232766 137.0
46.962156622 123.0
46.967080478 149.0
46.972004334 128.0
46.976928190 120.0
46.981852046 139.0
46.986775902 163.0
46.991699758 157.0
46.996623614 141.0
47.001547470 166.0
47.006471326 153.0
47.011395182 155.0
47.016319038 171.0
47.021242894 190.0
47.026166750 178.0
47.031090606 205.0
47.036014462 208.0
47.040938318 229.0
47.045862174 309.0
47.050786030 338.0
47.055709886 390.0
47.060633742 421.0
47.065557598 530.0
47.070481454 595.0
47.075405310 788.0
47.080329166 885.0
47.085253022 1037.0
47.090176878 1199.0
47.095100734 1396.0
47.100024590 1479.0
47.104948446 1551.0
47.109872302 1685.0
47.114796158 1583.0
47.119720014 1599.0
47.124643870 1583.0
47.129567726 1524.0
47.134491582 1419.0
47.139415438 1313.0
47.144339294 1189.0
47.149263150 989.0
47.154187006 836.0
47.159110862 781.0
47.164034718 759.0
47.168958574 727.0
47.173882430 733.0
47.178806286 698.0
47.183730142 718.0
47.188653998 684.0
47.193577854 683.0
47.198501710 657.0
47.203425566 603.0
47.208349422 560.0
47.213273278 567.0
47.218197134 519.0
47.223120990 458.0
47.228044846 378.0
47.232968702 366.0
47.237892558 299.0
47.242816414 283.0
47.247740270 259.0
47.252664127 211.0
47.257587983 234.0
47.262511839 231.0
47.267435695 199.0
47.272359551 184.0
47.277283407 193.0
47.282207263 194.0
47.287131119 170.0
47.292054975 169.0
47.296978831 171.0
47.301902687 185.0
47.306826543 160.0
47.311750399 188.0
47.316674255 160.0
47.321598111 151.0
47.326521967 146.0
47.331445823 157.0
47.336369679 135.0
47.341293535 137.0
47.346217391 170.0
47.351141247 138.0
47.356065103 146.0
47.360988959 167.0
47.365912815 169.0
47.370836671 157.0
47.375760527 131.0
47.380684383 149.0
47.385608239 149.0
47.390532095 148.0
47.395455951 146.0
47.400379807 147.0
47.405303663 149.0
47.410227519 119.0
47.415151375 104.0
47.420075231 159.0
47.424999087 149.0
47.429922943 162.0
47.434846799 148.0
47.439770655 141.0
47.444694511 138.0
47.449618367 151.0
47.454542223 151.0
47.459466079 145.0
47.464389935 131.0
47.469313791 117.0
47.474237647 130.0
47.479161503 132.0
47.484085359 158.0
47.489009215 128.0
47.493933071 143.0
47.498856927 124.0
47.503780783 157.0
47.508704639 146.0
47.513628495 145.0
47.518552351 151.0
47.523476207 148.0
47.528400063 107.0
47.533323919 146.0
47.538247775 131.0
47.543171631 106.0
47.548095487 146.0
47.553019343 126.0
47.557943199 115.0
47.562867055 125.0
47.567790911 135.0
47.572714767 132.0
47.577638623 139.0
47.582562479 129.0
47.587486335 133.0
47.592410191 119.0
47.597334047 124.0
47.602257903 117.0
47.607181759 118.0
47.612105615 137.0
47.617029471 123.0
47.621953327 146.0
47.626877183 122.0
47.631801039 125.0
47.636724895 145.0
47.641648751 149.0
47.646572607 146.0
47.651496463 121.0
47.656420319 128.0
47.661344175 103.0
47.666268031 124.0
47.671191887 147.0
47.676115743 131.0
47.681039599 139.0
47.685963455 131.0
47.690887311 130.0
47.695811167 135.0
47.700735023 118.0
47.705658879 129.0
47.710582735 115.0
47.715506591 146.0
47.720430447 125.0
47.725354303 133.0
47.730278159 125.0
47.735202015 133.0
47.740125871 126.0
47.745049727 130.0
47.749973583 132.0
47.754897440 118.0
47.759821296 127.0
47.764745152 142.0
47.769669008 149.0
47.774592864 136.0
47.779516720 128.0
47.784440576 131.0
47.789364432 139.0
47.794288288 125.0
47.799212144 135.0
47.804136000 103.0
47.809059856 121.0
47.813983712 115.0
47.818907568 147.0
47.823831424 126.0
47.828755280 124.0
47.833679136 117.0
47.838602992 112.0
47.843526848 133.0
47.848450704 136.0
47.853374560 144.0
47.858298416 106.0
47.863222272 129.0
47.868146128 127.0
47.873069984 132.0
47.877993840 122.0
47.882917696 127.0
47.887841552 137.0
47.892765408 124.0
47.897689264 143.0
47.902613120 141.0
47.907536976 133.0
47.912460832 144.0
47.917384688 137.0
47.922308544 127.0
47.927232400 147.0
47.932156256 138.0
47.937080112 141.0
47.942003968 153.0
47.946927824 149.0
47.951851680 126.0
47.956775536 143.0
47.961699392 120.0
47.966623248 136.0
47.971547104 126.0
47.976470960 131.0
47.981394816 141.0
47.986318672 134.0
47.991242528 138.0
47.996166384 135.0
48.001090240 119.0
48.006014096 123.0
48.010937952 138.0
48.015861808 135.0
48.020785664 130.0
48.025709520 156.0
48.030633376 112.0
48.035557232 133.0
48.040481088 134.0
48.045404944 140.0
48.050328800 126.0
48.055252656 131.0
48.060176512 147.0
48.065100368 116.0
48.070024224 106.0
48.074948080 142.0
48.079871936 123.0
48.084795792 128.0
48.089719648 127.0
48.094643504 135.0
48.099567360 135.0
48.104491216 134.0
48.109415072 139.0
48.114338928 136.0
48.119262784 121.0
48.124186640 131.0
48.129110496 140.0
48.134034352 140.0
48.138958208 140.0
48.143882064 145.0
48.148805920 156.0
48.153729776 144.0
48.158653632 143.0
48.163577488 133.0
48.168501344 123.0
48.173425200 143.0
48.178349056 128.0
48.183272912 128.0
48.188196768 136.0
48.193120624 105.0
48.198044480 133.0
48.202968336 132.0
48.207892192 131.0
48.212816048 136.0
48.217739904 137.0
48.222663760 127.0
48.227587616 153.0
48.232511472 125.0
48.237435328 123.0
48.242359184 130.0
48.247283040 136.0
48.252206897 126.0
48.257130753 124.0
48.262054609 108.0
48.266978465 148.0
48.271902321 137.0
48.276826177 147.0
48.281750033 158.0
48.286673889 136.0
48.291597745 138.0
48.296521601 148.0
48.301445457 135.0
48.306369313 112.0
48.311293169 132.0
48.316217025 136.0
48.321140881 139.0
48.326064737 138.0
48.330988593 127.0
48.335912449 139.0
48.340836305 140.0
48.345760161 140.0
48.350684017 138.0
48.355607873 136.0
48.360531729 142.0
48.365455585 151.0
48.370379441 129.0
48.375303297 138.0
48.380227153 136.0
48.385151009 128.0
48.390074865 135.0
48.394998721 144.0
48.399922577 145.0
48.404846433 140.0
48.409770289 121.0
48.414694145 130.0
48.419618001 132.0
48.424541857 120.0
48.429465713 149.0
48.434389569 114.0
48.439313425 131.0
48.444237281 129.0
48.449161137 144.0
48.454084993 145.0
48.459008849 127.0
48.463932705 158.0
48.468856561 123.0
48.473780417 121.0
48.478704273 141.0
48.483628129 140.0
48.488551985 161.0
48.493475841 151.0
48.498399697 121.0
48.503323553 147.0
48.508247409 134.0
48.513171265 125.0
48.518095121 139.0
48.523018977 123.0
48.527942833 144.0
48.532866689 138.0
48.537790545 128.0
48.542714401 161.0
48.547638257 152.0
48.552562113 116.0
48.557485969 137.0
48.562409825 152.0
48.567333681 158.0
48.572257537 134.0
48.577181393 147.0
48.582105249 129.0
48.587029105 164.0
48.591952961 150.0
48.596876817 159.0
48.601800673 149.0
48.606724529 162.0
48.611648385 141.0
48.616572241 135.0
48.621496097 142.0
48.626419953 157.0
48.631343809 148.0
48.636267665 157.0
48.641191521 151.0
48.646115377 153.0
48.651039233 153.0
48.655963089 142.0
48.660886945 147.0
48.665810801 137.0
48.670734657 162.0
48.675658513 144.0
48.680582369 168.0
48.685506225 157.0
48.690430081 140.0
48.695353937 146.0
48.700277793 159.0
48.705201649 148.0
48.710125505 154.0
48.715049361 157.0
48.719973217 143.0
48.724897073 155.0
48.729820929 155.0
48.734744785 164.0
48.739668641 161.0
48.744592497 165.0
48.749516353 134.0
48.754440210 169.0
48.759364066 159.0
48.764287922 145.0
48.769211778 132.0
48.774135634 157.0
48.779059490 151.0
48.783983346 158.0
48.788907202 172.0
48.793831058 161.0
48.798754914 139.0
48.803678770 154.0
48.808602626 138.0
48.813526482 171.0
48.818450338 165.0
48.823374194 161.0
48.828298050 119.0
48.833221906 158.0
48.838145762 152.0
48.843069618 152.0
48.847993474 172.0
48.852917330 166.0
48.857841186 164.0
48.862765042 143.0
48.867688898 150.0
48.872612754 160.0
48.877536610 163.0
48.882460466 151.0
48.887384322 154.0
48.892308178 137.0
48.897232034 158.0
48.902155890 170.0
48.907079746 179.0
48.912003602 167.0
48.916927458 166.0
48.921851314 149.0
48.926775170 181.0
48.931699026 165.0
48.936622882 159.0
48.941546738 164.0
48.946470594 183.0
48.951394450 168.0
48.956318306 152.0
48.961242162 170.0
48.966166018 159.0
48.971089874 165.0
48.976013730 189.0
48.980937586 165.0
48.985861442 179.0
48.990785298 177.0
48.995709154 171.0
49.000633010 178.0
49.005556866 177.0
49.010480722 181.0
49.015404578 163.0
49.020328434 164.0
49.025252290 177.0
49.030176146 168.0
49.035100002 190.0
49.040023858 206.0
49.044947714 198.0
49.049871570 160.0
49.054795426 162.0
49.059719282 168.0
49.064643138 207.0
49.069566994 203.0
49.074490850 178.0
49.079414706 185.0
49.084338562 186.0
49.089262418 180.0
49.094186274 177.0
49.099110130 204.0
49.104033986 212.0
49.108957842 172.0
49.113881698 198.0
49.118805554 203.0
49.123729410 190.0
49.128653266 185.0
49.133577122 207.0
49.138500978 187.0
49.143424834 217.0
49.148348690 233.0
49.153272546 203.0
49.158196402 213.0
49.163120258 231.0
49.168044114 234.0
49.172967970 202.0
49.177891826 222.0
49.182815682 218.0
49.187739538 214.0
49.192663394 226.0
49.197587250 206.0
49.202511106 217.0
49.207434962 207.0
49.212358818 235.0
49.217282674 237.0
49.222206530 222.0
49.227130386 223.0
49.232054242 228.0
49.236978098 227.0
49.241901954 271.0
49.246825810 243.0
49.251749667 282.0
49.256673523 239.0
49.261597379 247.0
49.266521235 265.0
49.271445091 273.0
49.276368947 242.0
49.281292803 244.0
49.286216659 233.0
49.291140515 280.0
49.296064371 277.0
49.300988227 283.0
49.305912083 271.0
49.310835939 267.0
49.315759795 275.0
49.320683651 289.0
49.325607507 288.0
49.330531363 315.0
49.335455219 320.0
49.340379075 257.0
49.345302931 295.0
49.350226787 310.0
49.355150643 328.0
49.360074499 325.0
49.364998355 331.0
49.369922211 333.0
49.374846067 342.0
49.379769923 373.0
49.384693779 354.0
49.389617635 377.0
49.394541491 318.0
49.399465347 364.0
49.404389203 368.0
49.409313059 355.0
49.414236915 381.0
49.419160771 352.0
49.424084627 411.0
49.429008483 410.0
49.433932339 427.0
49.438856195 387.0
49.443780051 435.0
49.448703907 449.0
49.453627763 435.0
49.458551619 468.0
49.463475475 457.0
49.468399331 502.0
49.473323187 470.0
49.478247043 509.0
49.483170899 490.0
49.488094755 512.0
49.493018611 523.0
49.497942467 531.0
49.502866323 526.0
49.507790179 538.0
49.512714035 533.0
49.517637891 617.0
49.522561747 588.0
49.527485603 616.0
49.532409459 565.0
49.537333315 694.0
49.542257171 625.0
49.547181027 663.0
49.552104883 690.0
49.557028739 697.0
49.561952595 802.0
49.566876451 737.0
49.571800307 770.0
49.576724163 797.0
49.581648019 838.0
49.586571875 803.0
49.591495731 891.0
49.596419587 866.0
49.601343443 960.0
49.606267299 974.0
49.611191155 944.0
49.616115011 988.0
49.621038867 1040.0
49.625962723 1022.0
49.630886579 1094.0
49.635810435 1044.0
49.640734291 1129.0
49.645658147 1147.0
49.650582003 1193.0
49.655505859 1245.0
49.660429715 1177.0
49.665353571 1202.0
49.670277427 1265.0
49.675201283 1227.0
49.680125139 1379.0
49.685048995 1424.0
49.689972851 1414.0
49.694896707 1353.0
49.699820563 1447.0
49.704744419 1503.0
49.709668275 1539.0
49.714592131 1542.0
49.719515987 1511.0
49.724439843 1504.0
49.729363699 1647.0
49.734287555 1557.0
49.739211411 1649.0
49.744135267 1665.0
49.749059123 1674.0
49.753982980 1680.0
49.758906836 1716.0
49.763830692 1701.0
49.768754548 1779.0
49.773678404 1687.0
49.778602260 1734.0
49.783526116 1768.0
49.788449972 1722.0
49.793373828 1700.0
49.798297684 1849.0
49.803221540 1800.0
49.808145396 1818.0
49.813069252 1742.0
49.817993108 1785.0
49.822916964 1828.0
49.827840820 1758.0
49.832764676 1820.0
49.837688532 1722.0
49.842612388 1836.0
49.847536244 1793.0
49.852460100 1793.0
49.857383956 1792.0
49.862307812 1775.0
49.867231668 1794.0
49.872155524 1732.0
49.877079380 1732.0
49.882003236 1648.0
49.886927092 1693.0
49.891850948 1637.0
49.896774804 1702.0
49.901698660 1701.0
49.906622516 1687.0
49.911546372 1667.0
49.916470228 1673.0
49.921394084 1623.0
49.926317940 1594.0
49.931241796 1592.0
49.936165652 1475.0
49.941089508 1510.0
49.946013364 1563.0
49.950937220 1451.0
49.955861076 1483.0
49.960784932 1475.0
49.965708788 1455.0
49.970632644 1390.0
49.975556500 1417.0
49.980480356 1405.0
49.985404212 1337.0
49.990328068 1343.0
49.995251924 1320.0
50.000175780 1360.0
50.005099636 1236.0
50.010023492 1279.0
50.014947348 1243.0
50.019871204 1286.0
50.024795060 1219.0
50.029718916 1148.0
50.034642772 1191.0
50.039566628 1127.0
50.044490484 1200.0
50.049414340 1087.0
50.054338196 1121.0
50.059262052 1098.0
50.064185908 1104.0
50.069109764 1021.0
50.074033620 995.0
50.078957476 1008.0
50.083881332 972.0
50.088805188 979.0
50.093729044 947.0
50.098652900 927.0
50.103576756 918.0
50.108500612 877.0
50.113424468 911.0
50.118348324 890.0
50.123272180 825.0
50.128196036 849.0
50.133119892 841.0
50.138043748 840.0
50.142967604 790.0
50.147891460 767.0
50.152815316 772.0
50.157739172 755.0
50.162663028 805.0
50.167586884 715.0
50.172510740 710.0
50.177434596 656.0
50.182358452 667.0
50.187282308 653.0
50.192206164 621.0
50.197130020 605.0
50.202053876 608.0
50.206977732 652.0
50.211901588 633.0
50.216825444 605.0
50.221749300 562.0
50.226673156 555.0
50.231597012 499.0
50.236520868 555.0
50.241444724 497.0
50.246368580 521.0
50.251292437 540.0
50.256216293 471.0
50.261140149 518.0
50.266064005 479.0
50.270987861 480.0
50.275911717 486.0
50.280835573 454.0
50.285759429 482.0
50.290683285 483.0
50.295607141 438.0
50.300530997 447.0
50.305454853 441.0
50.310378709 459.0
50.315302565 461.0
50.320226421 412.0
50.325150277 368.0
50.330074133 409.0
50.334997989 404.0
50.339921845 385.0
50.344845701 399.0
50.349769557 345.0
50.354693413 362.0
50.359617269 389.0
50.364541125 356.0
50.369464981 339.0
50.374388837 376.0
50.379312693 323.0
50.384236549 338.0
50.389160405 357.0
50.394084261 329.0
50.399008117 335.0
50.403931973 332.0
50.408855829 323.0
50.413779685 343.0
50.418703541 348.0
50.423627397 305.0
50.428551253 317.0
50.433475109 320.0
50.438398965 290.0
50.443322821 286.0
50.448246677 279.0
50.453170533 285.0
50.458094389 300.0
50.463018245 326.0
50.467942101 291.0
50.472865957 291.0
50.477789813 274.0
50.482713669 270.0
50.487637525 263.0
50.492561381 294.0
50.497485237 246.0
50.502409093 283.0
50.507332949 282.0
50.512256805 274.0
50.517180661 282.0
50.522104517 270.0
50.527028373 294.0
50.531952229 283.0
50.536876085 273.0
50.541799941 239.0
50.546723797 257.0
50.551647653 262.0
50.556571509 266.0
50.561495365 270.0
50.566419221 262.0
50.571343077 239.0
50.576266933 227.0
50.581190789 225.0
50.586114645 264.0
50.591038501 242.0
50.595962357 267.0
50.600886213 259.0
50.605810069 259.0
50.610733925 273.0
50.615657781 264.0
50.620581637 263.0
50.625505493 218.0
50.630429349 238.0
50.635353205 245.0
50.640277061 288.0
50.645200917 218.0
50.650124773 224.0
50.655048629 227.0
50.659972485 208.0
50.664896341 220.0
50.669820197 240.0
50.674744053 227.0
50.679667909 230.0
50.684591765 217.0
50.689515621 219.0
50.694439477 234.0
50.699363333 196.0
50.704287189 241.0
50.709211045 292.0
50.714134901 219.0
50.719058757 208.0
50.723982613 235.0
50.728906469 236.0
50.733830325 220.0
50.738754181 255.0
50.743678037 218.0
50.748601893 217.0
50.753525750 213.0
50.758449606 209.0
50.763373462 273.0
50.768297318 240.0
50.773221174 198.0
50.778145030 221.0
50.783068886 199.0
50.787992742 264.0
50.792916598 220.0
50.797840454 215.0
50.802764310 232.0
50.807688166 221.0
50.812612022 276.0
50.817535878 260.0
50.822459734 262.0
50.827383590 226.0
50.832307446 216.0
50.837231302 229.0
50.842155158 208.0
50.847079014 213.0
50.852002870 259.0
50.856926726 261.0
50.861850582 235.0
50.866774438 224.0
50.871698294 235.0
50.876622150 262.0
50.881546006 232.0
50.886469862 265.0
50.891393718 232.0
50.896317574 228.0
50.901241430 232.0
50.906165286 218.0
50.911089142 258.0
50.916012998 258.0
50.920936854 267.0
50.925860710 219.0
50.930784566 232.0
50.935708422 257.0
50.940632278 284.0
50.945556134 227.0
50.950479990 282.0
50.955403846 280.0
50.960327702 293.0
50.965251558 218.0
50.970175414 325.0
50.975099270 217.0
50.980023126 296.0
50.984946982 276.0
50.989870838 284.0
50.994794694 258.0
50.999718550 286.0
51.004642406 273.0
51.009566262 280.0
51.014490118 278.0
51.019413974 295.0
51.024337830 297.0
51.029261686 288.0
51.034185542 279.0
51.039109398 273.0
51.044033254 278.0
51.048957110 286.0
51.053880966 296.0
51.058804822 298.0
51.063728678 262.0
51.068652534 292.0
51.073576390 308.0
51.078500246 306.0
51.083424102 291.0
51.088347958 284.0
51.093271814 306.0
51.098195670 325.0
51.103119526 303.0
51.108043382 291.0
51.112967238 274.0
51.117891094 290.0
51.122814950 323.0
51.127738806 325.0
51.132662662 290.0
51.137586518 291.0
51.142510374 340.0
51.147434230 320.0
51.152358086 298.0
51.157281942 309.0
51.162205798 338.0
51.167129654 315.0
51.172053510 325.0
51.176977366 320.0
51.181901222 353.0
51.186825078 344.0
51.191748934 337.0
51.196672790 315.0
51.201596646 292.0
51.206520502 330.0
51.211444358 347.0
51.216368214 346.0
51.221292070 349.0
51.226215926 360.0
51.231139782 335.0
51.236063638 349.0
51.240987494 348.0
51.245911350 342.0
51.250835207 343.0
51.255759063 363.0
51.260682919 360.0
51.265606775 384.0
51.270530631 356.0
51.275454487 408.0
51.280378343 362.0
51.285302199 337.0
51.290226055 378.0
51.295149911 360.0
51.300073767 370.0
51.304997623 341.0
51.309921479 384.0
51.314845335 382.0
51.319769191 394.0
51.324693047 371.0
51.329616903 350.0
51.334540759 399.0
51.339464615 367.0
51.344388471 393.0
51.349312327 393.0
51.354236183 359.0
51.359160039 403.0
51.364083895 378.0
51.369007751 368.0
51.373931607 387.0
51.378855463 370.0
51.383779319 409.0
51.388703175 413.0
51.393627031 414.0
51.398550887 395.0
51.403474743 416.0
51.408398599 462.0
51.413322455 424.0
51.418246311 428.0
51.423170167 393.0
51.428094023 442.0
51.433017879 413.0
51.437941735 437.0
51.442865591 437.0
51.447789447 434.0
51.452713303 433.0
51.457637159 462.0
51.462561015 417.0
51.467484871 454.0
51.472408727 446.0
51.477332583 468.0
51.482256439 489.0
51.487180295 460.0
51.492104151 432.0
51.497028007 440.0
51.501951863 458.0
51.506875719 485.0
51.511799575 465.0
51.516723431 447.0
51.521647287 469.0
51.526571143 452.0
51.531494999 461.0
51.536418855 463.0
51.541342711 487.0
51.546266567 509.0
51.551190423 487.0
51.556114279 479.0
51.561038135 498.0
51.565961991 505.0
51.570885847 517.0
51.575809703 524.0
51.580733559 518.0
51.585657415 526.0
51.590581271 534.0
51.595505127 523.0
51.600428983 530.0
51.605352839 508.0
51.610276695 514.0
51.615200551 533.0
51.620124407 548.0
51.625048263 548.0
51.629972119 565.0
51.634895975 584.0
51.639819831 580.0
51.644743687 528.0
51.649667543 574.0
51.654591399 589.0
51.659515255 570.0
51.664439111 533.0
51.669362967 557.0
51.674286823 584.0
51.679210679 543.0
51.684134535 585.0
51.689058391 549.0
51.693982247 621.0
51.698906103 611.0
51.703829959 577.0
51.708753815 622.0
51.713677671 586.0
51.718601527 609.0
51.723525383 579.0
51.728449239 638.0
51.733373095 593.0
51.738296951 621.0
51.743220807 617.0
51.748144663 618.0
51.753068520 606.0
51.757992376 608.0
51.762916232 693.0
51.767840088 648.0
51.772763944 624.0
51.777687800 628.0
51.782611656 645.0
51.787535512 632.0
51.792459368 694.0
51.797383224 682.0
51.802307080 711.0
51.807230936 637.0
51.812154792 698.0
51.817078648 666.0
51.822002504 715.0
51.826926360 717.0
51.831850216 727.0
51.836774072 697.0
51.841697928 749.0
51.846621784 694.0
51.851545640 750.0
51.856469496 769.0
51.861393352 743.0
51.866317208 762.0
51.871241064 714.0
51.876164920 738.0
51.881088776 753.0
51.886012632 814.0
51.890936488 720.0
51.895860344 773.0
51.900784200 769.0
51.905708056 790.0
51.910631912 794.0
51.915555768 800.0
51.920479624 842.0
51.925403480 801.0
51.930327336 794.0
51.935251192 771.0
51.940175048 840.0
51.945098904 803.0
51.950022760 843.0
51.954946616 853.0
51.959870472 890.0
51.964794328 885.0
51.969718184 898.0
51.974642040 926.0
51.979565896 917.0
51.984489752 859.0
51.989413608 906.0
51.994337464 917.0
51.999261320 898.0
52.004185176 953.0
52.009109032 967.0
52.014032888 996.0
52.018956744 1035.0
52.023880600 1033.0
52.028804456 1037.0
52.033728312 986.0
52.038652168 1065.0
52.043576024 1088.0
52.048499880 1046.0
52.053423736 1147.0
52.058347592 1160.0
52.063271448 1156.0
52.068195304 1130.0
52.073119160 1203.0
52.078043016 1188.0
52.082966872 1210.0
52.087890728 1163.0
52.092814584 1262.0
52.097738440 1244.0
52.102662296 1362.0
52.107586152 1353.0
52.112510008 1409.0
52.117433864 1433.0
52.122357720 1446.0
52.127281576 1370.0
52.132205432 1444.0
52.137129288 1487.0
52.142053144 1605.0
52.146977000 1628.0
52.151900856 1561.0
52.156824712 1765.0
52.161748568 1751.0
52.166672424 1753.0
52.171596280 1803.0
52.176520136 1871.0
52.181443992 1995.0
52.186367848 2173.0
52.191291704 2281.0
52.196215560 2329.0
52.201139416 2615.0
52.206063272 2665.0
52.210987128 2875.0
52.215910984 3041.0
52.220834840 3288.0
52.225758696 3362.0
52.230682552 3708.0
52.235606408 3955.0
52.240530264 3974.0
52.245454120 4303.0
52.250377977 4425.0
52.255301833 4542.0
52.260225689 4677.0
52.265149545 4943.0
52.270073401 5014.0
52.274997257 5008.0
52.279921113 4959.0
52.284844969 4889.0
52.289768825 4931.0
52.294692681 4878.0
52.299616537 4809.0
52.304540393 5029.0
52.309464249 4748.0
52.314388105 4714.0
52.319311961 4749.0
52.324235817 4770.0
52.329159673 4815.0
52.334083529 4828.0
52.339007385 4963.0
52.343931241 5077.0
52.348855097 5251.0
52.353778953 5449.0
52.358702809 5884.0
52.363626665 5913.0
52.368550521 6117.0
52.373474377 6806.0
52.378398233 7112.0
52.383322089 7504.0
52.388245945 8266.0
52.393169801 8994.0
52.398093657 9752.0
52.403017513 10639.0
52.407941369 11618.0
52.412865225 13062.0
52.417789081 14684.0
52.422712937 16651.0
52.427636793 19092.0
52.432560649 21782.0
52.437484505 25499.0
52.442408361 30784.0
52.447332217 37628.0
52.452256073 47402.0
52.457179929 62369.0
52.462103785 85114.0
52.467027641 124030.0
52.471951497 179944.0
52.476875353 249751.0
52.481799209 308434.0
52.486723065 354940.0
52.491646921 381557.0
52.496570777 401572.0
52.501494633 410051.0
52.506418489 416050.0
52.511342345 412724.0
52.516266201 399785.0
52.521190057 374274.0
52.526113913 327702.0
52.531037769 265179.0
52.535961625 193144.0
52.540885481 140902.0
52.545809337 101618.0
52.550733193 77927.0
52.555657049 59233.0
52.560580905 48400.0
52.565504761 39976.0
52.570428617 35496.0
52.575352473 32395.0
52.580276329 32001.0
52.585200185 32573.0
52.590124041 34845.0
52.595047897 39898.0
52.599971753 48777.0
52.604895609 62622.0
52.609819465 84485.0
52.614743321 112261.0
52.619667177 143592.0
52.624591033 167234.0
52.629514889 186679.0
52.634438745 198832.0
52.639362601 206117.0
52.644286457 208532.0
52.649210313 208182.0
52.654134169 203043.0
52.659058025 192281.0
52.663981881 176923.0
52.668905737 148772.0
52.673829593 119543.0
52.678753449 89198.0
52.683677305 67067.0
52.688601161 48748.0
52.693525017 37210.0
52.698448873 28773.0
52.703372729 22988.0
52.708296585 18801.0
52.713220441 15874.0
52.718144297 13672.0
52.723068153 11865.0
52.727992009 10608.0
52.732915865 9596.0
52.737839721 8736.0
52.742763577 8075.0
52.747687433 7395.0
52.752611290 6875.0
52.757535146 6297.0
52.762459002 5909.0
52.767382858 5554.0
52.772306714 5413.0
52.777230570 5007.0
52.782154426 4770.0
52.787078282 4502.0
52.792002138 4218.0
52.796925994 4168.0
52.801849850 3913.0
52.806773706 3865.0
52.811697562 3642.0
52.816621418 3561.0
52.821545274 3421.0
52.826469130 3379.0
52.831392986 3181.0
52.836316842 3016.0
52.841240698 2936.0
52.846164554 2826.0
52.851088410 2730.0
52.856012266 2638.0
52.860936122 2587.0
52.865859978 2564.0
52.870783834 2509.0
52.875707690 2322.0
52.880631546 2269.0
52.885555402 2208.0
52.890479258 2241.0
52.895403114 2089.0
52.900326970 2103.0
52.905250826 2022.0
52.910174682 1996.0
52.915098538 1962.0
52.920022394 1938.0
52.924946250 1873.0
52.929870106 1848.0
52.934793962 1693.0
52.939717818 1735.0
52.944641674 1714.0
52.949565530 1643.0
52.954489386 1526.0
52.959413242 1593.0
52.964337098 1464.0
52.969260954 1467.0
52.974184810 1492.0
52.979108666 1439.0
52.984032522 1363.0
52.988956378 1365.0
52.993880234 1421.0
52.998804090 1343.0
53.003727946 1341.0
53.008651802 1346.0
53.013575658 1305.0
53.018499514 1276.0
53.023423370 1241.0
53.028347226 1201.0
53.033271082 1212.0
53.038194938 1191.0
53.043118794 1181.0
53.048042650 1093.0
53.052966506 1098.0
53.057890362 1127.0
53.062814218 1023.0
53.067738074 1027.0
53.072661930 1045.0
53.077585786 1007.0
53.082509642 1013.0
53.087433498 986.0
53.092357354 929.0
53.097281210 892.0
53.102205066 927.0
53.107128922 894.0
53.112052778 920.0
53.116976634 877.0
53.121900490 923.0
53.126824346 921.0
53.131748202 828.0
53.136672058 879.0
53.141595914 775.0
53.146519770 840.0
53.151443626 827.0
53.156367482 770.0
53.161291338 822.0
53.166215194 783.0
53.171139050 741.0
53.176062906 784.0
53.180986762 817.0
53.185910618 777.0
53.190834474 770.0
53.195758330 750.0
53.200682186 765.0
53.205606042 771.0
53.210529898 771.0
53.215453754 689.0
53.220377610 691.0
53.225301466 706.0
53.230225322 706.0
53.235149178 710.0
53.240073034 680.0
53.244996890 662.0
53.249920747 661.0
53.254844603 635.0
53.259768459 608.0
53.264692315 586.0
53.269616171 658.0
53.274540027 688.0
53.279463883 598.0
53.284387739 609.0
53.289311595 627.0
53.294235451 614.0
53.299159307 581.0
53.304083163 602.0
53.309007019 587.0
53.313930875 576.0
53.318854731 599.0
53.323778587 624.0
53.328702443 597.0
53.333626299 582.0
53.338550155 504.0
53.343474011 553.0
53.348397867 518.0
53.353321723 517.0
53.358245579 505.0
53.363169435 573.0
53.368093291 524.0
53.373017147 529.0
53.377941003 522.0
53.382864859 508.0
53.387788715 559.0
53.392712571 470.0
53.397636427 461.0
53.402560283 473.0
53.407484139 465.0
53.412407995 509.0
53.417331851 462.0
53.422255707 509.0
53.427179563 482.0
53.432103419 439.0
53.437027275 440.0
53.441951131 450.0
53.446874987 439.0
53.451798843 464.0
53.456722699 425.0
53.461646555 468.0
53.466570411 388.0
53.471494267 423.0
53.476418123 436.0
53.481341979 438.0
53.486265835 399.0
53.491189691 402.0
53.496113547 397.0
53.501037403 388.0
53.505961259 385.0
53.510885115 404.0
53.515808971 366.0
53.520732827 373.0
53.525656683 357.0
53.530580539 362.0
53.535504395 398.0
53.540428251 338.0
53.545352107 376.0
53.550275963 344.0
53.555199819 339.0
53.560123675 332.0
53.565047531 354.0
53.569971387 353.0
53.574895243 339.0
53.579819099 339.0
53.584742955 314.0
53.589666811 332.0
53.594590667 358.0
53.599514523 337.0
53.604438379 327.0
53.609362235 325.0
53.614286091 329.0
53.619209947 337.0
53.624133803 288.0
53.629057659 293.0
53.633981515 313.0
53.638905371 296.0
53.643829227 315.0
53.648753083 332.0
53.653676939 303.0
53.658600795 320.0
53.663524651 348.0
53.668448507 302.0
53.673372363 223.0
53.678296219 320.0
53.683220075 286.0
53.688143931 297.0
53.693067787 283.0
53.697991643 224.0
53.702915499 281.0
53.707839355 270.0
53.712763211 262.0
53.717687067 291.0
53.722610923 299.0
53.727534779 233.0
53.732458635 272.0
53.737382491 289.0
53.742306347 294.0
53.747230203 267.0
53.752154060 257.0
53.757077916 286.0
53.762001772 261.0
53.766925628 272.0
53.771849484 264.0
53.776773340 255.0
53.781697196 258.0
53.786621052 255.0
53.791544908 202.0
53.796468764 224.0
53.801392620 256.0
53.806316476 275.0
53.811240332 199.0
53.816164188 223.0
53.821088044 196.0
53.826011900 225.0
53.830935756 198.0
53.835859612 273.0
53.840783468 235.0
53.845707324 279.0
53.850631180 223.0
53.855555036 260.0
53.860478892 227.0
53.865402748 263.0
53.870326604 189.0
53.875250460 209.0
53.880174316 222.0
53.885098172 202.0
53.890022028 222.0
53.894945884 197.0
53.899869740 233.0
53.904793596 202.0
53.909717452 210.0
53.914641308 209.0
53.919565164 218.0
53.924489020 220.0
53.929412876 194.0
53.934336732 203.0
53.939260588 212.0
53.944184444 236.0
53.949108300 214.0
53.954032156 198.0
53.958956012 194.0
53.963879868 213.0
53.968803724 209.0
53.973727580 197.0
53.978651436 209.0
53.983575292 179.0
53.988499148 190.0
53.993423004 202.0
53.998346860 196.0
54.003270716 234.0
54.008194572 211.0
54.013118428 187.0
54.018042284 204.0
54.022966140 205.0
54.027889996 202.0
54.032813852 190.0
54.037737708 211.0
54.042661564 183.0
54.047585420 188.0
54.052509276 190.0
54.057433132 185.0
54.062356988 175.0
54.067280844 196.0
54.072204700 193.0
54.077128556 187.0
54.082052412 182.0
54.086976268 193.0
54.091900124 176.0
54.096823980 174.0
54.101747836 179.0
54.106671692 194.0
54.111595548 168.0
54.116519404 177.0
54.121443260 189.0
54.126367116 159.0
54.131290972 185.0
54.136214828 166.0
54.141138684 187.0
54.146062540 183.0
54.150986396 173.0
54.155910252 185.0
54.160834108 165.0
54.165757964 222.0
54.170681820 149.0
54.175605676 184.0
54.180529532 184.0
54.185453388 203.0
54.190377244 177.0
54.195301100 166.0
54.200224956 173.0
54.205148812 158.0
54.210072668 173.0
54.214996524 165.0
54.219920380 179.0
54.224844236 167.0
54.229768092 156.0
54.234691948 181.0
54.239615804 161.0
54.244539660 193.0
54.249463517 181.0
54.254387373 166.0
54.259311229 148.0
54.264235085 179.0
54.269158941 188.0
54.274082797 161.0
54.279006653 170.0
54.283930509 174.0
54.288854365 168.0
54.293778221 186.0
54.298702077 149.0
54.303625933 148.0
54.308549789 171.0
54.313473645 176.0
54.318397501 144.0
54.323321357 158.0
54.328245213 171.0
54.333169069 154.0
54.338092925 172.0
54.343016781 156.0
54.347940637 150.0
54.352864493 155.0
54.357788349 149.0
54.362712205 194.0
54.367636061 146.0
54.372559917 151.0
54.377483773 176.0
54.382407629 143.0
54.387331485 174.0
54.392255341 150.0
54.397179197 179.0
54.402103053 142.0
54.407026909 179.0
54.411950765 169.0
54.416874621 171.0
54.421798477 182.0
54.426722333 177.0
54.431646189 159.0
54.436570045 168.0
54.441493901 186.0
54.446417757 169.0
54.451341613 169.0
54.456265469 159.0
54.461189325 155.0
54.466113181 161.0
54.471037037 145.0
54.475960893 168.0
54.480884749 140.0
54.485808605 172.0
54.490732461 171.0
54.495656317 145.0
54.500580173 171.0
54.505504029 167.0
54.510427885 162.0
54.515351741 159.0
54.520275597 160.0
54.525199453 124.0
54.530123309 152.0
54.535047165 156.0
54.539971021 155.0
54.544894877 155.0
54.549818733 169.0
54.554742589 174.0
54.559666445 149.0
54.564590301 162.0
54.569514157 165.0
54.574438013 126.0
54.579361869 159.0
54.584285725 160.0
54.589209581 151.0
54.594133437 168.0
54.599057293 176.0
54.603981149 134.0
54.608905005 152.0
54.613828861 160.0
54.618752717 134.0
54.623676573 146.0
54.628600429 168.0
54.633524285 146.0
54.638448141 176.0
54.643371997 140.0
54.648295853 152.0
54.653219709 145.0
54.658143565 133.0
54.663067421 142.0
54.667991277 141.0
54.672915133 170.0
54.677838989 170.0
54.682762845 139.0
54.687686701 141.0
54.692610557 144.0
54.697534413 153.0
54.702458269 150.0
54.707382125 148.0
54.712305981 162.0
54.717229837 156.0
54.722153693 137.0
54.727077549 166.0
54.732001405 161.0
54.736925261 152.0
54.741849117 153.0
54.746772973 145.0
54.751696830 148.0
54.756620686 132.0
54.761544542 137.0
54.766468398 127.0
54.771392254 129.0
54.776316110 148.0
54.781239966 138.0
54.786163822 114.0
54.791087678 159.0
54.796011534 144.0
54.800935390 145.0
54.805859246 131.0
54.810783102 144.0
54.815706958 132.0
54.820630814 140.0
54.825554670 134.0
54.830478526 160.0
54.835402382 142.0
54.840326238 168.0
54.845250094 147.0
54.850173950 131.0
54.855097806 129.0
54.860021662 150.0
54.864945518 156.0
54.869869374 168.0
54.874793230 147.0
54.879717086 155.0
54.884640942 144.0
54.889564798 145.0
54.894488654 147.0
54.899412510 158.0
54.904336366 150.0
54.909260222 152.0
54.914184078 158.0
54.919107934 159.0
54.924031790 150.0
54.928955646 148.0
54.933879502 142.0
54.938803358 127.0
54.943727214 163.0
54.948651070 116.0
54.953574926 148.0
54.958498782 123.0
54.963422638 138.0
54.968346494 126.0
54.973270350 164.0
54.978194206 137.0
54.983118062 158.0
54.988041918 152.0
54.992965774 135.0
54.997889630 165.0
