45.002461930 69.0
45.007385786 77.0
45.012309642 56.0
45.017233498 64.0
45.022157354 79.0
45.027081210 65.0
45.032005066 86.0
45.036928922 69.0
45.041852778 86.0
45.046776634 70.0
45.051700490 81.0
45.056624346 69.0
45.061548202 74.0
45.066472058 75.0
45.071395914 69.0
45.076319770 87.0
45.081243626 63.0
45.086167482 67.0
45.091091338 72.0
45.096015194 71.0
45.100939050 71.0
45.105862906 63.0
45.110786762 64.0
45.115710618 80.0
45.120634474 72.0
45.125558330 66.0
45.130482186 73.0
45.135406042 62.0
45.140329898 70.0
45.145253754 64.0
45.150177610 60.0
45.155101466 68.0
45.160025322 58.0
45.164949178 67.0
45.169873034 67.0
45.174796890 64.0
45.179720746 64.0
45.184644602 76.0
45.189568458 64.0
45.194492314 68.0
45.199416170 51.0
45.204340026 64.0
45.209263882 75.0
45.214187738 65.0
45.219111594 59.0
45.224035450 57.0
45.228959306 63.0
45.233883162 74.0
45.238807018 66.0
45.243730874 71.0
45.248654730 73.0
45.253578587 70.0
45.258502443 51.0
45.263426299 59.0
45.268350155 79.0
45.273274011 61.0
45.278197867 73.0
45.283121723 71.0
45.288045579 66.0
45.292969435 61.0
45.297893291 54.0
45.302817147 61.0
45.307741003 74.0
45.312664859 58.0
45.317588715 66.0
45.322512571 61.0
45.327436427 62.0
45.332360283 50.0
45.337284139 62.0
45.342207995 88.0
45.347131851 65.0
45.352055707 60.0
45.356979563 57.0
45.361903419 59.0
45.366827275 70.0
45.371751131 68.0
45.376674987 74.0
45.381598843 63.0
45.386522699 72.0
45.391446555 70.0
45.396370411 52.0
45.401294267 54.0
45.406218123 50.0
45.411141979 67.0
45.416065835 57.0
45.420989691 67.0
45.425913547 77.0
45.430837403 61.0
45.435761259 54.0
45.440685115 66.0
45.445608971 70.0
45.450532827 68.0
45.455456683 55.0
45.460380539 82.0
45.465304395 67.0
45.470228251 60.0
45.475152107 66.0
45.480075963 66.0
45.484999819 53.0
45.489923675 55.0
45.494847531 67.0
45.499771387 77.0
45.504695243 58.0
45.509619099 77.0
45.514542955 56.0
45.519466811 60.0
45.524390667 77.0
45.529314523 78.0
45.534238379 59.0
45.539162235 58.0
45.544086091 72.0
45.549009947 51.0
45.553933803 64.0
45.558857659 64.0
45.563781515 64.0
45.568705371 54.0
45.573629227 58.0
45.578553083 60.0
45.583476939 61.0
45.588400795 68.0
45.593324651 63.0
45.598248507 62.0
45.603172363 71.0
45.608096219 61.0
45.613020075 62.0
45.617943931 71.0
45.622867787 61.0
45.627791643 55.0
45.632715499 65.0
45.637639355 51.0
45.642563211 70.0
45.647487067 66.0
45.652410923 43.0
45.657334779 64.0
45.662258635 68.0
45.667182491 77.0
45.672106347 71.0
45.677030203 56.0
45.681954059 60.0
45.686877915 67.0
45.691801771 60.0
45.696725627 66.0
45.701649483 60.0
45.706573339 63.0
45.711497195 58.0
45.716421051 72.0
45.721344907 60.0
45.726268763 71.0
45.731192619 62.0
45.736116475 57.0
45.741040331 70.0
45.745964187 69.0
45.750888043 73.0
45.755811900 60.0
45.760735756 62.0
45.765659612 70.0
45.770583468 72.0
45.775507324 61.0
45.780431180 55.0
45.785355036 60.0
45.790278892 61.0
45.795202748 60.0
45.800126604 70.0
45.805050460 66.0
45.809974316 56.0
45.814898172 58.0
45.819822028 66.0
45.824745884 55.0
45.829669740 73.0
45.834593596 59.0
45.839517452 69.0
45.844441308 76.0
45.849365164 57.0
45.854289020 61.0
45.859212876 74.0
45.864136732 69.0
45.869060588 64.0
45.873984444 61.0
45.878908300 73.0
45.883832156 73.0
45.888756012 82.0
45.893679868 54.0
45.898603724 52.0
45.903527580 72.0
45.908451436 46.0
45.913375292 62.0
45.918299148 63.0
45.923223004 76.0
45.928146860 70.0
45.933070716 49.0
45.937994572 60.0
45.942918428 68.0
45.947842284 77.0
45.952766140 48.0
45.957689996 41.0
45.962613852 56.0
45.967537708 58.0
45.972461564 65.0
45.977385420 72.0
45.982309276 62.0
45.987233132 62.0
45.992156988 64.0
45.997080844 64.0
46.002004700 78.0
46.006928556 74.0
46.011852412 58.0
46.016776268 63.0
46.021700124 54.0
46.026623980 54.0
46.031547836 62.0
46.036471692 52.0
46.041395548 64.0
46.046319404 59.0
46.051243260 62.0
46.056167116 54.0
46.061090972 63.0
46.066014828 71.0
46.070938684 70.0
46.075862540 62.0
46.080786396 62.0
46.085710252 66.0
46.090634108 62.0
46.095557964 63.0
46.100481820 65.0
46.105405676 65.0
46.110329532 60.0
46.115253388 77.0
46.120177244 65.0
46.125101100 57.0
46.130024956 74.0
46.134948812 55.0
46.139872668 63.0
46.144796524 61.0
46.149720380 57.0
46.154644236 50.0
46.159568092 65.0
46.164491948 74.0
46.169415804 66.0
46.174339660 61.0
46.179263516 64.0
46.184187372 56.0
46.189111228 63.0
46.194035084 57.0
46.198958940 74.0
46.203882796 59.0
46.208806652 75.0
46.213730508 58.0
46.218654364 62.0
46.223578220 57.0
46.228502076 72.0
46.233425932 64.0
46.238349788 74.0
46.243273644 60.0
46.248197500 58.0
46.253121357 63.0
46.258045213 64.0
46.262969069 58.0
46.267892925 53.0
46.272816781 61.0
46.277740637 54.0
46.282664493 58.0
46.287588349 66.0
46.292512205 77.0
46.297436061 52.0
46.302359917 68.0
46.307283773 68.0
46.312207629 59.0
46.317131485 65.0
46.322055341 61.0
46.326979197 60.0
46.331903053 63.0
46.336826909 50.0
46.341750765 65.0
46.346674621 72.0
46.351598477 61.0
46.356522333 57.0
46.361446189 55.0
46.366370045 62.0
46.371293901 57.0
46.376217757 59.0
46.381141613 64.0
46.386065469 73.0
46.390989325 58.0
46.395913181 72.0
46.400837037 73.0
46.405760893 62.0
46.410684749 71.0
46.415608605 51.0
46.420532461 57.0
46.425456317 83.0
46.430380173 70.0
46.435304029 49.0
46.440227885 58.0
46.445151741 80.0
46.450075597 57.0
46.454999453 67.0
46.459923309 78.0
46.464847165 56.0
46.469771021 58.0
46.474694877 61.0
46.479618733 55.0
46.484542589 68.0
46.489466445 63.0
46.494390301 70.0
46.499314157 56.0
46.504238013 62.0
46.509161869 65.0
46.514085725 51.0
46.519009581 62.0
46.523933437 57.0
46.528857293 59.0
46.533781149 65.0
46.538705005 68.0
46.543628861 77.0
46.548552717 71.0
46.553476573 74.0
46.558400429 63.0
46.563324285 71.0
46.568248141 72.0
46.573171997 58.0
46.578095853 54.0
46.583019709 65.0
46.587943565 56.0
46.592867421 64.0
46.597791277 66.0
46.602715133 61.0
46.607638989 77.0
46.612562845 68.0
46.617486701 63.0
46.622410557 63.0
46.627334413 72.0
46.632258269 69.0
46.637182125 67.0
46.642105981 80.0
46.647029837 62.0
46.651953693 62.0
46.656877549 73.0
46.661801405 67.0
46.666725261 70.0
46.671649117 73.0
46.676572973 79.0
46.681496829 81.0
46.686420685 76.0
46.691344541 72.0
46.696268397 81.0
46.701192253 68.0
46.706116109 57.0
46.711039965 57.0
46.715963821 74.0
46.720887677 82.0
46.725811533 62.0
46.730735389 74.0
46.735659245 90.0
46.740583101 97.0
46.745506957 70.0
46.750430813 64.0
46.755354670 66.0
46.760278526 74.0
46.765202382 73.0
46.770126238 61.0
46.775050094 74.0
46.779973950 75.0
46.784897806 79.0
46.789821662 80.0
46.794745518 72.0
46.799669374 74.0
46.804593230 67.0
46.809517086 65.0
46.814440942 76.0
46.819364798 54.0
46.824288654 68.0
46.829212510 62.0
46.834136366 77.0
46.839060222 65.0
46.843984078 67.0
46.848907934 66.0
46.853831790 70.0
46.858755646 74.0
46.863679502 75.0
46.868603358 65.0
46.873527214 84.0
46.878451070 58.0
46.883374926 81.0
46.888298782 80.0
46.893222638 71.0
46.898146494 65.0
46.903070350 77.0
46.907994206 72.0
46.912918062 63.0
46.917841918 96.0
46.922765774 80.0
46.927689630 67.0
46.932613486 74.0
46.937537342 72.0
46.942461198 80.0
46.947385054 64.0
46.952308910 70.0
46.957232766 73.0
46.962156622 96.0
46.967080478 80.0
46.972004334 83.0
46.976928190 83.0
46.981852046 79.0
46.986775902 66.0
46.991699758 86.0
46.996623614 68.0
47.001547470 88.0
47.006471326 81.0
47.011395182 87.0
47.016319038 97.0
47.021242894 99.0
47.026166750 101.0
47.031090606 84.0
47.036014462 120.0
47.040938318 125.0
47.045862174 130.0
47.050786030 158.0
47.055709886 152.0
47.060633742 173.0
47.065557598 195.0
47.070481454 274.0
47.075405310 340.0
47.080329166 374.0
47.085253022 468.0
47.090176878 536.0
47.095100734 700.0
47.100024590 854.0
47.104948446 980.0
47.109872302 1045.0
47.114796158 1126.0
47.119720014 1160.0
47.124643870 1149.0
47.129567726 960.0
47.134491582 822.0
47.139415438 710.0
47.144339294 576.0
47.149263150 465.0
47.154187006 420.0
47.159110862 338.0
47.164034718 325.0
47.168958574 303.0
47.173882430 219.0
47.178806286 256.0
47.183730142 180.0
47.188653998 195.0
47.193577854 161.0
47.198501710 159.0
47.203425566 134.0
47.208349422 134.0
47.213273278 122.0
47.218197134 115.0
47.223120990 122.0
47.228044846 112.0
47.232968702 117.0
47.237892558 106.0
47.242816414 97.0
47.247740270 92.0
47.252664127 94.0
47.257587983 102.0
47.262511839 89.0
47.267435695 103.0
47.272359551 82.0
47.277283407 90.0
47.282207263 85.0
47.287131119 99.0
47.292054975 85.0
47.296978831 94.0
47.301902687 81.0
47.306826543 97.0
47.311750399 106.0
47.316674255 82.0
47.321598111 90.0
47.326521967 74.0
47.331445823 85.0
47.336369679 98.0
47.341293535 82.0
47.346217391 72.0
47.351141247 83.0
47.356065103 77.0
47.360988959 85.0
47.365912815 78.0
47.370836671 69.0
47.375760527 81.0
47.380684383 79.0
47.385608239 83.0
47.390532095 83.0
47.395455951 73.0
47.400379807 80.0
47.405303663 77.0
47.410227519 74.0
47.415151375 71.0
47.420075231 73.0
47.424999087 95.0
47.429922943 70.0
47.434846799 63.0
47.439770655 74.0
47.444694511 71.0
47.449618367 70.0
47.454542223 71.0
47.459466079 87.0
47.464389935 78.0
47.469313791 74.0
47.474237647 81.0
47.479161503 78.0
47.484085359 88.0
47.489009215 86.0
47.493933071 74.0
47.498856927 89.0
47.503780783 74.0
47.508704639 73.0
47.513628495 71.0
47.518552351 71.0
47.523476207 80.0
47.528400063 63.0
47.533323919 67.0
47.538247775 61.0
47.543171631 75.0
47.548095487 71.0
47.553019343 68.0
47.557943199 75.0
47.562867055 76.0
47.567790911 71.0
47.572714767 76.0
47.577638623 61.0
47.582562479 75.0
47.587486335 69.0
47.592410191 64.0
47.597334047 89.0
47.602257903 59.0
47.607181759 73.0
47.612105615 74.0
47.617029471 63.0
47.621953327 73.0
47.626877183 73.0
47.631801039 79.0
47.636724895 61.0
47.641648751 57.0
47.646572607 77.0
47.651496463 78.0
47.656420319 70.0
47.661344175 68.0
47.666268031 77.0
47.671191887 63.0
47.676115743 64.0
47.681039599 90.0
47.685963455 61.0
47.690887311 74.0
47.695811167 89.0
47.700735023 74.0
47.705658879 82.0
47.710582735 80.0
47.715506591 83.0
47.720430447 69.0
47.725354303 76.0
47.730278159 69.0
47.735202015 86.0
47.740125871 88.0
47.745049727 72.0
47.749973583 69.0
47.754897440 65.0
47.759821296 84.0
47.764745152 77.0
47.769669008 78.0
47.774592864 72.0
47.779516720 88.0
47.784440576 59.0
47.789364432 84.0
47.794288288 63.0
47.799212144 82.0
47.804136000 84.0
47.809059856 77.0
47.813983712 62.0
47.818907568 81.0
47.823831424 71.0
47.828755280 88.0
47.833679136 63.0
47.838602992 91.0
47.843526848 80.0
47.848450704 83.0
47.853374560 73.0
47.858298416 82.0
47.863222272 76.0
47.868146128 86.0
47.873069984 81.0
47.877993840 79.0
47.882917696 68.0
47.887841552 67.0
47.892765408 73.0
47.897689264 73.0
47.902613120 78.0
47.907536976 77.0
47.912460832 72.0
47.917384688 62.0
47.922308544 87.0
47.927232400 68.0
47.932156256 78.0
47.937080112 70.0
47.942003968 67.0
47.946927824 83.0
47.951851680 73.0
47.956775536 69.0
47.961699392 65.0
47.966623248 72.0
47.971547104 71.0
47.976470960 80.0
47.981394816 76.0
47.986318672 86.0
47.991242528 77.0
47.996166384 70.0
48.001090240 67.0
48.006014096 75.0
48.010937952 71.0
48.015861808 79.0
48.020785664 80.0
48.025709520 76.0
48.030633376 75.0
48.035557232 63.0
48.040481088 77.0
48.045404944 74.0
48.050328800 81.0
48.055252656 84.0
48.060176512 69.0
48.065100368 87.0
48.070024224 71.0
48.074948080 74.0
48.079871936 76.0
48.084795792 77.0
48.089719648 90.0
48.094643504 64.0
48.099567360 90.0
48.104491216 82.0
48.109415072 98.0
48.114338928 73.0
48.119262784 82.0
48.124186640 85.0
48.129110496 80.0
48.134034352 71.0
48.138958208 79.0
48.143882064 81.0
48.148805920 70.0
48.153729776 94.0
48.158653632 61.0
48.163577488 83.0
48.168501344 73.0
48.173425200 88.0
48.178349056 80.0
48.183272912 67.0
48.188196768 76.0
48.193120624 78.0
48.198044480 80.0
48.202968336 65.0
48.207892192 82.0
48.212816048 55.0
48.217739904 75.0
48.222663760 58.0
48.227587616 83.0
48.232511472 78.0
48.237435328 72.0
48.242359184 63.0
48.247283040 75.0
48.252206897 60.0
48.257130753 76.0
48.262054609 81.0
48.266978465 62.0
48.271902321 77.0
48.276826177 74.0
48.281750033 70.0
48.286673889 74.0
48.291597745 66.0
48.296521601 80.0
48.301445457 85.0
48.306369313 76.0
48.311293169 56.0
48.316217025 80.0
48.321140881 82.0
48.326064737 83.0
48.330988593 73.0
48.335912449 77.0
48.340836305 63.0
48.345760161 59.0
48.350684017 83.0
48.355607873 75.0
48.360531729 89.0
48.365455585 70.0
48.370379441 86.0
48.375303297 80.0
48.380227153 79.0
48.385151009 79.0
48.390074865 70.0
48.394998721 65.0
48.399922577 65.0
48.404846433 80.0
48.409770289 83.0
48.414694145 76.0
48.419618001 67.0
48.424541857 75.0
48.429465713 78.0
48.434389569 70.0
48.439313425 87.0
48.444237281 73.0
48.449161137 68.0
48.454084993 75.0
48.459008849 80.0
48.463932705 73.0
48.468856561 87.0
48.473780417 78.0
48.478704273 75.0
48.483628129 84.0
48.488551985 83.0
48.493475841 70.0
48.498399697 64.0
48.503323553 73.0
48.508247409 86.0
48.513171265 66.0
48.518095121 96.0
48.523018977 79.0
48.527942833 59.0
48.532866689 71.0
48.537790545 74.0
48.542714401 78.0
48.547638257 66.0
48.552562113 64.0
48.557485969 83.0
48.562409825 81.0
48.567333681 81.0
48.572257537 83.0
48.577181393 79.0
48.582105249 80.0
48.587029105 71.0
48.591952961 85.0
48.596876817 94.0
48.601800673 79.0
48.606724529 77.0
48.611648385 73.0
48.616572241 82.0
48.621496097 83.0
48.626419953 76.0
48.631343809 85.0
48.636267665 86.0
48.641191521 67.0
48.646115377 76.0
48.651039233 83.0
48.655963089 76.0
48.660886945 80.0
48.665810801 79.0
48.670734657 74.0
48.675658513 83.0
48.680582369 76.0
48.685506225 82.0
48.690430081 85.0
48.695353937 75.0
48.700277793 89.0
48.705201649 68.0
48.710125505 81.0
48.715049361 78.0
48.719973217 88.0
48.724897073 95.0
48.729820929 77.0
48.734744785 93.0
48.739668641 99.0
48.744592497 70.0
48.749516353 77.0
48.754440210 92.0
48.759364066 71.0
48.764287922 84.0
48.769211778 71.0
48.774135634 90.0
48.779059490 84.0
48.783983346 89.0
48.788907202 91.0
48.793831058 72.0
48.798754914 76.0
48.803678770 81.0
48.808602626 93.0
48.813526482 82.0
48.818450338 88.0
48.823374194 71.0
48.828298050 103.0
48.833221906 89.0
48.838145762 78.0
48.843069618 72.0
48.847993474 82.0
48.852917330 80.0
48.857841186 107.0
48.862765042 74.0
48.867688898 93.0
48.872612754 85.0
48.877536610 91.0
48.882460466 94.0
48.887384322 88.0
48.892308178 84.0
48.897232034 85.0
48.902155890 86.0
48.907079746 91.0
48.912003602 88.0
48.916927458 82.0
48.921851314 96.0
48.926775170 96.0
48.931699026 108.0
48.936622882 99.0
48.941546738 84.0
48.946470594 78.0
48.951394450 78.0
48.956318306 86.0
48.961242162 74.0
48.966166018 84.0
48.971089874 90.0
48.976013730 97.0
48.980937586 76.0
48.985861442 71.0
48.990785298 90.0
48.995709154 95.0
49.000633010 90.0
49.005556866 82.0
49.010480722 87.0
49.015404578 84.0
49.020328434 88.0
49.025252290 90.0
49.030176146 75.0
49.035100002 90.0
49.040023858 96.0
49.044947714 91.0
49.049871570 94.0
49.054795426 90.0
49.059719282 89.0
49.064643138 94.0
49.069566994 95.0
49.074490850 106.0
49.079414706 84.0
49.084338562 82.0
49.089262418 108.0
49.094186274 99.0
49.099110130 86.0
49.104033986 78.0
49.108957842 113.0
49.113881698 104.0
49.118805554 89.0
49.123729410 86.0
49.128653266 93.0
49.133577122 103.0
49.138500978 89.0
49.143424834 87.0
49.148348690 81.0
49.153272546 94.0
49.158196402 103.0
49.163120258 94.0
49.168044114 95.0
49.172967970 85.0
49.177891826 92.0
49.182815682 89.0
49.187739538 112.0
49.192663394 98.0
49.197587250 90.0
49.202511106 94.0
49.207434962 94.0
49.212358818 108.0
49.217282674 96.0
49.222206530 102.0
49.227130386 98.0
49.232054242 113.0
49.236978098 98.0
49.241901954 121.0
49.246825810 96.0
49.251749667 116.0
49.256673523 102.0
49.261597379 118.0
49.266521235 102.0
49.271445091 109.0
49.276368947 106.0
49.281292803 124.0
49.286216659 124.0
49.291140515 121.0
49.296064371 122.0
49.300988227 119.0
49.305912083 118.0
49.310835939 131.0
49.315759795 111.0
49.320683651 128.0
49.325607507 115.0
49.330531363 113.0
49.335455219 133.0
49.340379075 117.0
49.345302931 124.0
49.350226787 110.0
49.355150643 127.0
49.360074499 120.0
49.364998355 97.0
49.369922211 121.0
49.374846067 131.0
49.379769923 118.0
49.384693779 123.0
49.389617635 121.0
49.394541491 120.0
49.399465347 122.0
49.404389203 120.0
49.409313059 128.0
49.414236915 135.0
49.419160771 127.0
49.424084627 128.0
49.429008483 126.0
49.433932339 122.0
49.438856195 143.0
49.443780051 119.0
49.448703907 142.0
49.453627763 141.0
49.458551619 134.0
49.463475475 144.0
49.468399331 146.0
49.473323187 136.0
49.478247043 150.0
49.483170899 148.0
49.488094755 143.0
49.493018611 140.0
49.497942467 161.0
49.502866323 167.0
49.507790179 178.0
49.512714035 166.0
49.517637891 165.0
49.522561747 180.0
49.527485603 183.0
49.532409459 192.0
49.537333315 174.0
49.542257171 194.0
49.547181027 208.0
49.552104883 175.0
49.557028739 189.0
49.561952595 179.0
49.566876451 200.0
49.571800307 211.0
49.576724163 200.0
49.581648019 220.0
49.586571875 195.0
49.591495731 217.0
49.596419587 239.0
49.601343443 229.0
49.606267299 243.0
49.611191155 226.0
49.616115011 212.0
49.621038867 243.0
49.625962723 273.0
49.630886579 278.0
49.635810435 262.0
49.640734291 285.0
49.645658147 268.0
49.650582003 304.0
49.655505859 287.0
49.660429715 295.0
49.665353571 297.0
49.670277427 303.0
49.675201283 324.0
49.680125139 308.0
49.685048995 318.0
49.689972851 308.0
49.694896707 361.0
49.699820563 320.0
49.704744419 353.0
49.709668275 370.0
49.714592131 406.0
49.719515987 385.0
49.724439843 407.0
49.729363699 415.0
49.734287555 398.0
49.739211411 420.0
49.744135267 432.0
49.749059123 414.0
49.753982980 480.0
49.758906836 509.0
49.763830692 492.0
49.768754548 527.0
49.773678404 559.0
49.778602260 577.0
49.783526116 601.0
49.788449972 594.0
49.793373828 645.0
49.798297684 623.0
49.803221540 627.0
49.808145396 623.0
49.813069252 661.0
49.817993108 709.0
49.822916964 757.0
49.827840820 735.0
49.832764676 793.0
49.837688532 812.0
49.842612388 875.0
49.847536244 890.0
49.852460100 939.0
49.857383956 956.0
49.862307812 914.0
49.867231668 1033.0
49.872155524 1070.0
49.877079380 1094.0
49.882003236 1133.0
49.886927092 1182.0
49.891850948 1226.0
49.896774804 1345.0
49.901698660 1341.0
49.906622516 1359.0
49.911546372 1391.0
49.916470228 1511.0
49.921394084 1556.0
49.926317940 1638.0
49.931241796 1733.0
49.936165652 1803.0
49.941089508 1881.0
49.946013364 1969.0
49.950937220 2066.0
49.955861076 2310.0
49.960784932 2349.0
49.965708788 2462.0
49.970632644 2536.0
49.975556500 2776.0
49.980480356 2959.0
49.985404212 2987.0
49.990328068 3251.0
49.995251924 3391.0
50.000175780 3493.0
50.005099636 3616.0
50.010023492 3770.0
50.014947348 3882.0
50.019871204 4045.0
50.024795060 4105.0
50.029718916 4336.0
50.034642772 4365.0
50.039566628 4567.0
50.044490484 4631.0
50.049414340 4492.0
50.054338196 4670.0
50.059262052 4646.0
50.064185908 4747.0
50.069109764 4762.0
50.074033620 4699.0
50.078957476 4611.0
50.083881332 4619.0
50.088805188 4598.0
50.093729044 4491.0
50.098652900 4373.0
50.103576756 4301.0
50.108500612 4275.0
50.113424468 4341.0
50.118348324 4190.0
50.123272180 4017.0
50.128196036 3976.0
50.133119892 4002.0
50.138043748 3932.0
50.142967604 3836.0
50.147891460 3772.0
50.152815316 3810.0
50.157739172 3705.0
50.162663028 3547.0
50.167586884 3601.0
50.172510740 3486.0
50.177434596 3485.0
50.182358452 3289.0
50.187282308 3216.0
50.192206164 3267.0
50.197130020 3236.0
50.202053876 2912.0
50.206977732 2923.0
50.211901588 2899.0
50.216825444 2718.0
50.221749300 2661.0
50.226673156 2479.0
50.231597012 2498.0
50.236520868 2346.0
50.241444724 2303.0
50.246368580 2192.0
50.251292437 2116.0
50.256216293 1926.0
50.261140149 1892.0
50.266064005 1836.0
50.270987861 1767.0
50.275911717 1608.0
50.280835573 1461.0
50.285759429 1489.0
50.290683285 1319.0
50.295607141 1273.0
50.300530997 1253.0
50.305454853 1174.0
50.310378709 1094.0
50.315302565 1081.0
50.320226421 1016.0
50.325150277 983.0
50.330074133 944.0
50.334997989 857.0
50.339921845 799.0
50.344845701 797.0
50.349769557 769.0
50.354693413 717.0
50.359617269 724.0
50.364541125 698.0
50.369464981 627.0
50.374388837 611.0
50.379312693 586.0
50.384236549 578.0
50.389160405 570.0
50.394084261 476.0
50.399008117 515.0
50.403931973 434.0
50.408855829 458.0
50.413779685 481.0
50.418703541 448.0
50.423627397 397.0
50.428551253 377.0
50.433475109 389.0
50.438398965 368.0
50.443322821 361.0
50.448246677 372.0
50.453170533 353.0
50.458094389 357.0
50.463018245 346.0
50.467942101 319.0
50.472865957 332.0
50.477789813 310.0
50.482713669 298.0
50.487637525 298.0
50.492561381 300.0
50.497485237 279.0
50.502409093 293.0
50.507332949 286.0
50.512256805 262.0
50.517180661 270.0
50.522104517 276.0
50.527028373 287.0
50.531952229 289.0
50.536876085 260.0
50.541799941 240.0
50.546723797 238.0
50.551647653 260.0
50.556571509 238.0
50.561495365 260.0
50.566419221 230.0
50.571343077 219.0
50.576266933 222.0
50.581190789 229.0
50.586114645 216.0
50.591038501 210.0
50.595962357 205.0
50.600886213 225.0
50.605810069 200.0
50.610733925 203.0
50.615657781 189.0
50.620581637 207.0
50.625505493 211.0
50.630429349 173.0
50.635353205 179.0
50.640277061 202.0
50.645200917 182.0
50.650124773 183.0
50.655048629 177.0
50.659972485 178.0
50.664896341 155.0
50.669820197 177.0
50.674744053 205.0
50.679667909 180.0
50.684591765 140.0
50.689515621 177.0
50.694439477 183.0
50.699363333 164.0
50.704287189 146.0
50.709211045 185.0
50.714134901 182.0
50.719058757 181.0
50.723982613 192.0
50.728906469 167.0
50.733830325 181.0
50.738754181 162.0
50.743678037 156.0
50.748601893 161.0
50.753525750 153.0
50.758449606 186.0
50.763373462 151.0
50.768297318 173.0
50.773221174 178.0
50.778145030 137.0
50.783068886 146.0
50.787992742 127.0
50.792916598 153.0
50.797840454 142.0
50.802764310 165.0
50.807688166 152.0
50.812612022 147.0
50.817535878 147.0
50.822459734 179.0
50.827383590 148.0
50.832307446 151.0
50.837231302 151.0
50.842155158 156.0
50.847079014 129.0
50.852002870 148.0
50.856926726 177.0
50.861850582 163.0
50.866774438 153.0
50.871698294 164.0
50.876622150 165.0
50.881546006 150.0
50.886469862 147.0
50.891393718 145.0
50.896317574 151.0
50.901241430 174.0
50.906165286 157.0
50.911089142 128.0
50.916012998 184.0
50.920936854 161.0
50.925860710 146.0
50.930784566 138.0
50.935708422 161.0
50.940632278 149.0
50.945556134 157.0
50.950479990 146.0
50.955403846 133.0
50.960327702 156.0
50.965251558 178.0
50.970175414 151.0
50.975099270 142.0
50.980023126 153.0
50.984946982 178.0
50.989870838 149.0
50.994794694 148.0
50.999718550 159.0
51.004642406 149.0
51.009566262 154.0
51.014490118 155.0
51.019413974 152.0
51.024337830 142.0
51.029261686 160.0
51.034185542 155.0
51.039109398 131.0
51.044033254 154.0
51.048957110 183.0
51.053880966 173.0
51.058804822 146.0
51.063728678 180.0
51.068652534 168.0
51.073576390 167.0
51.078500246 176.0
51.083424102 132.0
51.088347958 166.0
51.093271814 146.0
51.098195670 140.0
51.103119526 167.0
51.108043382 148.0
51.112967238 177.0
51.117891094 129.0
51.122814950 138.0
51.127738806 150.0
51.132662662 128.0
51.137586518 171.0
51.142510374 157.0
51.147434230 149.0
51.152358086 160.0
51.157281942 162.0
51.162205798 171.0
51.167129654 179.0
51.172053510 141.0
51.176977366 177.0
51.181901222 160.0
51.186825078 183.0
51.191748934 179.0
51.196672790 148.0
51.201596646 150.0
51.206520502 170.0
51.211444358 145.0
51.216368214 188.0
51.221292070 184.0
51.226215926 173.0
51.231139782 180.0
51.236063638 178.0
51.240987494 185.0
51.245911350 167.0
51.250835207 161.0
51.255759063 187.0
51.260682919 166.0
51.265606775 175.0
51.270530631 175.0
51.275454487 169.0
51.280378343 181.0
51.285302199 180.0
51.290226055 179.0
51.295149911 192.0
51.300073767 181.0
51.304997623 160.0
51.309921479 212.0
51.314845335 218.0
51.319769191 202.0
51.324693047 176.0
51.329616903 172.0
51.334540759 214.0
51.339464615 184.0
51.344388471 174.0
51.349312327 185.0
51.354236183 204.0
51.359160039 181.0
51.364083895 188.0
51.369007751 201.0
51.373931607 195.0
51.378855463 200.0
51.383779319 256.0
51.388703175 221.0
51.393627031 266.0
51.398550887 205.0
51.403474743 194.0
51.408398599 203.0
51.413322455 207.0
51.418246311 198.0
51.423170167 214.0
51.428094023 205.0
51.433017879 204.0
51.437941735 185.0
51.442865591 256.0
51.447789447 258.0
51.452713303 260.0
51.457637159 259.0
51.462561015 192.0
51.467484871 200.0
51.472408727 224.0
51.477332583 261.0
51.482256439 211.0
51.487180295 289.0
51.492104151 280.0
51.497028007 224.0
51.501951863 272.0
51.506875719 257.0
51.511799575 261.0
51.516723431 274.0
51.521647287 273.0
51.526571143 287.0
51.531494999 266.0
51.536418855 287.0
51.541342711 289.0
51.546266567 270.0
51.551190423 213.0
51.556114279 277.0
51.561038135 289.0
51.565961991 267.0
51.570885847 300.0
51.575809703 298.0
51.580733559 266.0
51.585657415 282.0
51.590581271 282.0
51.595505127 321.0
51.600428983 304.0
51.605352839 319.0
51.610276695 312.0
51.615200551 305.0
51.620124407 282.0
51.625048263 287.0
51.629972119 322.0
51.634895975 297.0
51.639819831 308.0
51.644743687 301.0
51.649667543 319.0
51.654591399 323.0
51.659515255 319.0
51.664439111 308.0
51.669362967 323.0
51.674286823 320.0
51.679210679 351.0
51.684134535 326.0
51.689058391 335.0
51.693982247 319.0
51.698906103 323.0
51.703829959 334.0
51.708753815 333.0
51.713677671 341.0
51.718601527 384.0
51.723525383 320.0
51.728449239 322.0
51.733373095 354.0
51.738296951 342.0
51.743220807 341.0
51.748144663 340.0
51.753068520 348.0
51.757992376 321.0
51.762916232 379.0
51.767840088 359.0
51.772763944 350.0
51.777687800 385.0
51.782611656 377.0
51.787535512 337.0
51.792459368 372.0
51.797383224 358.0
51.802307080 385.0
51.807230936 406.0
51.812154792 375.0
51.817078648 379.0
51.822002504 380.0
51.826926360 357.0
51.831850216 373.0
51.836774072 393.0
51.841697928 418.0
51.846621784 349.0
51.851545640 362.0
51.856469496 391.0
51.861393352 384.0
51.866317208 378.0
51.871241064 404.0
51.876164920 404.0
51.881088776 378.0
51.886012632 400.0
51.890936488 388.0
51.895860344 447.0
51.900784200 391.0
51.905708056 404.0
51.910631912 446.0
51.915555768 416.0
51.920479624 413.0
51.925403480 430.0
51.930327336 466.0
51.935251192 449.0
51.940175048 475.0
51.945098904 442.0
51.950022760 515.0
51.954946616 492.0
51.959870472 466.0
51.964794328 491.0
51.969718184 478.0
51.974642040 501.0
51.979565896 504.0
51.984489752 521.0
51.989413608 496.0
51.994337464 549.0
51.999261320 495.0
52.004185176 499.0
52.009109032 577.0
52.014032888 513.0
52.018956744 538.0
52.023880600 572.0
52.028804456 580.0
52.033728312 605.0
52.038652168 583.0
52.043576024 525.0
52.048499880 592.0
52.053423736 590.0
52.058347592 573.0
52.063271448 640.0
52.068195304 650.0
52.073119160 692.0
52.078043016 630.0
52.082966872 695.0
52.087890728 683.0
52.092814584 722.0
52.097738440 689.0
52.102662296 717.0
52.107586152 718.0
52.112510008 761.0
52.117433864 778.0
52.122357720 822.0
52.127281576 781.0
52.132205432 814.0
52.137129288 799.0
52.142053144 820.0
52.146977000 845.0
52.151900856 888.0
52.156824712 883.0
52.161748568 946.0
52.166672424 929.0
52.171596280 996.0
52.176520136 1030.0
52.181443992 1080.0
52.186367848 1097.0
52.191291704 1157.0
52.196215560 1285.0
52.201139416 1321.0
52.206063272 1385.0
52.210987128 1444.0
52.215910984 1658.0
52.220834840 1717.0
52.225758696 1827.0
52.230682552 1992.0
52.235606408 2151.0
52.240530264 2306.0
52.245454120 2279.0
52.250377977 2561.0
52.255301833 2650.0
52.260225689 2626.0
52.265149545 2672.0
52.270073401 2789.0
52.274997257 2784.0
52.279921113 2802.0
52.284844969 2750.0
52.289768825 2836.0
52.294692681 2811.0
52.299616537 2774.0
52.304540393 2656.0
52.309464249 2686.0
52.314388105 2510.0
52.319311961 2674.0
52.324235817 2564.0
52.329159673 2509.0
52.334083529 2619.0
52.339007385 2647.0
52.343931241 2715.0
52.348855097 2874.0
52.353778953 2969.0
52.358702809 2993.0
52.363626665 3105.0
52.368550521 3306.0
52.373474377 3457.0
52.378398233 3647.0
52.383322089 3844.0
52.388245945 4246.0
52.393169801 4670.0
52.398093657 4867.0
52.403017513 5344.0
52.407941369 5732.0
52.412865225 6485.0
52.417789081 7185.0
52.422712937 7921.0
52.427636793 8797.0
52.432560649 10139.0
52.437484505 11537.0
52.442408361 13323.0
52.447332217 15745.0
52.452256073 18969.0
52.457179929 23254.0
52.462103785 29010.0
52.467027641 38310.0
52.471951497 50640.0
52.476875353 73619.0
52.481799209 107058.0
52.486723065 163138.0
52.491646921 226918.0
52.496570777 287637.0
52.501494633 323986.0
52.506418489 337366.0
52.511342345 328572.0
52.516266201 288875.0
52.521190057 231314.0
52.526113913 166161.0
52.531037769 118479.0
52.535961625 84139.0
52.540885481 61545.0
52.545809337 46032.0
52.550733193 35101.0
52.555657049 28203.0
52.560580905 23106.0
52.565504761 19669.0
52.570428617 17400.0
52.575352473 16197.0
52.580276329 15441.0
52.585200185 15085.0
52.590124041 15717.0
52.595047897 17332.0
52.599971753 18966.0
52.604895609 22992.0
52.609819465 28137.0
52.614743321 37321.0
52.619667177 50455.0
52.624591033 71850.0
52.629514889 97550.0
52.634438745 126402.0
52.639362601 148256.0
52.644286457 161306.0
52.649210313 162856.0
52.654134169 152689.0
52.659058025 132124.0
52.663981881 103955.0
52.668905737 77886.0
52.673829593 56260.0
52.678753449 41133.0
52.683677305 30167.0
52.688601161 23318.0
52.693525017 17639.0
52.698448873 14204.0
52.703372729 11695.0
52.708296585 9730.0
52.713220441 8385.0
52.718144297 7461.0
52.723068153 6579.0
52.727992009 5846.0
52.732915865 5286.0
52.737839721 4908.0
52.742763577 4473.0
52.747687433 4139.0
52.752611290 3874.0
52.757535146 3592.0
52.762459002 3199.0
52.767382858 3083.0
52.772306714 3066.0
52.777230570 2917.0
52.782154426 2726.0
52.787078282 2612.0
52.792002138 2526.0
52.796925994 2392.0
52.801849850 2324.0
52.806773706 2200.0
52.811697562 2140.0
52.816621418 2023.0
52.821545274 1933.0
52.826469130 1815.0
52.831392986 1841.0
52.836316842 1716.0
52.841240698 1699.0
52.846164554 1589.0
52.851088410 1562.0
52.856012266 1565.0
52.860936122 1516.0
52.865859978 1449.0
52.870783834 1362.0
52.875707690 1361.0
52.880631546 1281.0
52.885555402 1319.0
52.890479258 1297.0
52.895403114 1259.0
52.900326970 1258.0
52.905250826 1162.0
52.910174682 1176.0
52.915098538 1162.0
52.920022394 1159.0
52.924946250 1058.0
52.929870106 1054.0
52.934793962 1025.0
52.939717818 955.0
52.944641674 938.0
52.949565530 930.0
52.954489386 932.0
52.959413242 867.0
52.964337098 875.0
52.969260954 842.0
52.974184810 831.0
52.979108666 844.0
52.984032522 861.0
52.988956378 812.0
52.993880234 825.0
52.998804090 754.0
53.003727946 699.0
53.008651802 729.0
53.013575658 730.0
53.018499514 728.0
53.023423370 697.0
53.028347226 676.0
53.033271082 688.0
53.038194938 614.0
53.043118794 664.0
53.048042650 630.0
53.052966506 575.0
53.057890362 589.0
53.062814218 621.0
53.067738074 623.0
53.072661930 558.0
53.077585786 604.0
53.082509642 504.0
53.087433498 566.0
53.092357354 607.0
53.097281210 551.0
53.102205066 498.0
53.107128922 539.0
53.112052778 516.0
53.116976634 534.0
53.121900490 532.0
53.126824346 547.0
53.131748202 528.0
53.136672058 479.0
53.141595914 545.0
53.146519770 475.0
53.151443626 497.0
53.156367482 468.0
53.161291338 447.0
53.166215194 469.0
53.171139050 489.0
53.176062906 431.0
53.180986762 468.0
53.185910618 387.0
53.190834474 451.0
53.195758330 368.0
53.200682186 431.0
53.205606042 411.0
53.210529898 410.0
53.215453754 356.0
53.220377610 401.0
53.225301466 376.0
53.230225322 401.0
53.235149178 393.0
53.240073034 397.0
53.244996890 393.0
53.249920747 398.0
53.254844603 373.0
53.259768459 345.0
53.264692315 384.0
53.269616171 356.0
53.274540027 381.0
53.279463883 375.0
53.284387739 362.0
53.289311595 321.0
53.294235451 346.0
53.299159307 371.0
53.304083163 340.0
53.309007019 359.0
53.313930875 307.0
53.318854731 351.0
53.323778587 308.0
53.328702443 326.0
53.333626299 315.0
53.338550155 301.0
53.343474011 276.0
53.348397867 289.0
53.353321723 315.0
53.358245579 282.0
53.363169435 312.0
53.368093291 300.0
53.373017147 301.0
53.377941003 268.0
53.382864859 316.0
53.387788715 308.0
53.392712571 306.0
53.397636427 272.0
53.402560283 286.0
53.407484139 292.0
53.412407995 224.0
53.417331851 276.0
53.422255707 266.0
53.427179563 266.0
53.432103419 261.0
53.437027275 209.0
53.441951131 209.0
53.446874987 214.0
53.451798843 259.0
53.456722699 218.0
53.461646555 219.0
53.466570411 218.0
53.471494267 216.0
53.476418123 213.0
53.481341979 208.0
53.486265835 209.0
53.491189691 213.0
53.496113547 210.0
53.501037403 192.0
53.505961259 194.0
53.510885115 180.0
53.515808971 198.0
53.520732827 201.0
53.525656683 196.0
53.530580539 194.0
53.535504395 176.0
53.540428251 187.0
53.545352107 186.0
53.550275963 186.0
53.555199819 186.0
53.560123675 179.0
53.565047531 187.0
53.569971387 177.0
53.574895243 144.0
53.579819099 182.0
53.584742955 186.0
53.589666811 187.0
53.594590667 181.0
53.599514523 166.0
53.604438379 151.0
53.609362235 188.0
53.614286091 157.0
53.619209947 167.0
53.624133803 158.0
53.629057659 166.0
53.633981515 148.0
53.638905371 171.0
53.643829227 144.0
53.648753083 163.0
53.653676939 145.0
53.658600795 163.0
53.663524651 157.0
53.668448507 163.0
53.673372363 148.0
53.678296219 152.0
53.683220075 160.0
53.688143931 158.0
53.693067787 168.0
53.697991643 129.0
53.702915499 135.0
53.707839355 142.0
53.712763211 131.0
53.717687067 155.0
53.722610923 151.0
53.727534779 133.0
53.732458635 141.0
53.737382491 170.0
53.742306347 158.0
53.747230203 143.0
53.752154060 137.0
53.757077916 136.0
53.762001772 145.0
53.766925628 141.0
53.771849484 137.0
53.776773340 155.0
53.781697196 143.0
53.786621052 125.0
53.791544908 128.0
53.796468764 155.0
53.801392620 129.0
53.806316476 139.0
53.811240332 139.0
53.816164188 135.0
53.821088044 136.0
53.826011900 130.0
53.830935756 125.0
53.835859612 139.0
53.840783468 140.0
53.845707324 107.0
53.850631180 128.0
53.855555036 120.0
53.860478892 119.0
53.865402748 117.0
53.870326604 132.0
53.875250460 130.0
53.880174316 123.0
53.885098172 119.0
53.890022028 111.0
53.894945884 139.0
53.899869740 118.0
53.904793596 124.0
53.909717452 120.0
53.914641308 129.0
53.919565164 97.0
53.924489020 114.0
53.929412876 123.0
53.934336732 131.0
53.939260588 112.0
53.944184444 140.0
53.949108300 110.0
53.954032156 123.0
53.958956012 107.0
53.963879868 109.0
53.968803724 128.0
53.973727580 111.0
53.978651436 106.0
53.983575292 113.0
53.988499148 99.0
53.993423004 104.0
53.998346860 104.0
54.003270716 113.0
54.008194572 100.0
54.013118428 118.0
54.018042284 107.0
54.022966140 106.0
54.027889996 108.0
54.032813852 107.0
54.037737708 106.0
54.042661564 112.0
54.047585420 118.0
54.052509276 115.0
54.057433132 99.0
54.062356988 99.0
54.067280844 96.0
54.072204700 112.0
54.077128556 125.0
54.082052412 116.0
54.086976268 77.0
54.091900124 97.0
54.096823980 98.0
54.101747836 122.0
54.106671692 105.0
54.111595548 109.0
54.116519404 109.0
54.121443260 111.0
54.126367116 101.0
54.131290972 95.0
54.136214828 94.0
54.141138684 110.0
54.146062540 100.0
54.150986396 117.0
54.155910252 99.0
54.160834108 98.0
54.165757964 95.0
54.170681820 108.0
54.175605676 94.0
54.180529532 74.0
54.185453388 113.0
54.190377244 82.0
54.195301100 94.0
54.200224956 111.0
54.205148812 106.0
54.210072668 105.0
54.214996524 106.0
54.219920380 97.0
54.224844236 95.0
54.229768092 90.0
54.234691948 82.0
54.239615804 114.0
54.244539660 97.0
54.249463517 111.0
54.254387373 89.0
54.259311229 108.0
54.264235085 98.0
54.269158941 90.0
54.274082797 106.0
54.279006653 85.0
54.283930509 91.0
54.288854365 92.0
54.293778221 89.0
54.298702077 113.0
54.303625933 96.0
54.308549789 90.0
54.313473645 85.0
54.318397501 77.0
54.323321357 92.0
54.328245213 92.0
54.333169069 113.0
54.338092925 89.0
54.343016781 95.0
54.347940637 117.0
54.352864493 91.0
54.357788349 106.0
54.362712205 94.0
54.367636061 104.0
54.372559917 101.0
54.377483773 97.0
54.382407629 88.0
54.387331485 83.0
54.392255341 74.0
54.397179197 87.0
54.402103053 74.0
54.407026909 91.0
54.411950765 91.0
54.416874621 92.0
54.421798477 95.0
54.426722333 88.0
54.431646189 107.0
54.436570045 72.0
54.441493901 94.0
54.446417757 83.0
54.451341613 102.0
54.456265469 93.0
54.461189325 101.0
54.466113181 76.0
54.471037037 111.0
54.475960893 93.0
54.480884749 97.0
54.485808605 97.0
54.490732461 87.0
54.495656317 91.0
54.500580173 100.0
54.505504029 81.0
54.510427885 90.0
54.515351741 75.0
54.520275597 95.0
54.525199453 99.0
54.530123309 86.0
54.535047165 94.0
54.539971021 107.0
54.544894877 96.0
54.549818733 84.0
54.554742589 86.0
54.559666445 95.0
54.564590301 74.0
54.569514157 98.0
54.574438013 115.0
54.579361869 79.0
54.584285725 93.0
54.589209581 85.0
54.594133437 89.0
54.599057293 95.0
54.603981149 89.0
54.608905005 81.0
54.613828861 88.0
54.618752717 90.0
54.623676573 90.0
54.628600429 85.0
54.633524285 96.0
54.638448141 74.0
54.643371997 103.0
54.648295853 96.0
54.653219709 69.0
54.658143565 75.0
54.663067421 80.0
54.667991277 98.0
54.672915133 72.0
54.677838989 92.0
54.682762845 99.0
54.687686701 84.0
54.692610557 89.0
54.697534413 101.0
54.702458269 86.0
54.707382125 77.0
54.712305981 91.0
54.717229837 88.0
54.722153693 80.0
54.727077549 75.0
54.732001405 89.0
54.736925261 86.0
54.741849117 78.0
54.746772973 92.0
54.751696830 82.0
54.756620686 102.0
54.761544542 85.0
54.766468398 84.0
54.771392254 97.0
54.776316110 81.0
54.781239966 91.0
54.786163822 77.0
54.791087678 87.0
54.796011534 95.0
54.800935390 85.0
54.805859246 74.0
54.810783102 79.0
54.815706958 84.0
54.820630814 84.0
54.825554670 71.0
54.830478526 90.0
54.835402382 86.0
54.840326238 89.0
54.845250094 86.0
54.850173950 85.0
54.855097806 100.0
54.860021662 68.0
54.864945518 85.0
54.869869374 96.0
54.874793230 87.0
54.879717086 81.0
54.884640942 85.0
54.889564798 96.0
54.894488654 80.0
54.899412510 82.0
54.904336366 81.0
54.909260222 89.0
54.914184078 76.0
54.919107934 87.0
54.924031790 83.0
54.928955646 81.0
54.933879502 91.0
54.938803358 79.0
54.943727214 82.0
54.948651070 65.0
54.953574926 69.0
54.958498782 84.0
54.963422638 72.0
54.968346494 71.0
54.973270350 78.0
54.978194206 86.0
54.983118062 83.0
54.988041918 76.0
54.992965774 67.0
54.997889630 87.0
