55.001861930 57.0
55.006785786 66.0
55.011709642 73.0
55.016633498 43.0
55.021557354 68.0
55.026481210 78.0
55.031405066 62.0
55.036328922 66.0
55.041252778 74.0
55.046176634 66.0
55.051100490 58.0
55.056024346 64.0
55.060948202 68.0
55.065872058 67.0
55.070795914 62.0
55.075719770 66.0
55.080643626 53.0
55.085567482 55.0
55.090491338 51.0
55.095415194 66.0
55.100339050 64.0
55.105262906 70.0
55.110186762 45.0
55.115110618 73.0
55.120034474 61.0
55.124958330 71.0
55.129882186 64.0
55.134806042 70.0
55.139729898 55.0
55.144653754 56.0
55.149577610 64.0
55.154501466 63.0
55.159425322 66.0
55.164349178 71.0
55.169273034 64.0
55.174196890 74.0
55.179120746 77.0
55.184044602 60.0
55.188968459 67.0
55.193892315 63.0
55.198816171 70.0
55.203740027 68.0
55.208663883 55.0
55.213587739 72.0
55.218511595 79.0
55.223435451 64.0
55.228359307 76.0
55.233283163 58.0
55.238207019 68.0
55.243130875 71.0
55.248054731 63.0
55.252978587 55.0
55.257902443 54.0
55.262826299 60.0
55.267750155 56.0
55.272674011 57.0
55.277597867 73.0
55.282521723 60.0
55.287445579 62.0
55.292369435 61.0
55.297293291 64.0
55.302217147 53.0
55.307141003 67.0
55.312064859 73.0
55.316988715 59.0
55.321912571 74.0
55.326836427 45.0
55.331760283 60.0
55.336684139 56.0
55.341607995 67.0
55.346531851 65.0
55.351455707 68.0
55.356379563 68.0
55.361303419 69.0
55.366227275 53.0
55.371151131 65.0
55.376074987 62.0
55.380998843 62.0
55.385922699 70.0
55.390846555 65.0
55.395770411 76.0
55.400694267 75.0
55.405618123 83.0
55.410541979 71.0
55.415465835 68.0
55.420389691 72.0
55.425313547 57.0
55.430237403 66.0
55.435161259 71.0
55.440085115 57.0
55.445008971 66.0
55.449932827 57.0
55.454856683 67.0
55.459780539 73.0
55.464704395 59.0
55.469628251 61.0
55.474552107 69.0
55.479475963 73.0
55.484399819 63.0
55.489323675 58.0
55.494247531 63.0
55.499171387 75.0
55.504095243 67.0
55.509019099 62.0
55.513942955 49.0
55.518866811 62.0
55.523790667 64.0
55.528714523 55.0
55.533638379 63.0
55.538562235 65.0
55.543486091 74.0
55.548409947 72.0
55.553333803 78.0
55.558257660 77.0
55.563181516 74.0
55.568105372 83.0
55.573029228 53.0
55.577953084 78.0
55.582876940 80.0
55.587800796 57.0
55.592724652 77.0
55.597648508 64.0
55.602572364 70.0
55.607496220 71.0
55.612420076 78.0
55.617343932 72.0
55.622267788 80.0
55.627191644 77.0
55.632115500 75.0
55.637039356 66.0
55.641963212 59.0
55.646887068 57.0
55.651810924 56.0
55.656734780 72.0
55.661658636 60.0
55.666582492 58.0
55.671506348 71.0
55.676430204 65.0
55.681354060 69.0
55.686277916 63.0
55.691201772 70.0
55.696125628 59.0
55.701049484 71.0
55.705973340 54.0
55.710897196 72.0
55.715821052 79.0
55.720744908 67.0
55.725668764 78.0
55.730592620 64.0
55.735516476 67.0
55.740440332 60.0
55.745364188 68.0
55.750288044 63.0
55.755211900 71.0
55.760135756 62.0
55.765059612 70.0
55.769983468 73.0
55.774907324 56.0
55.779831180 68.0
55.784755036 59.0
55.789678892 63.0
55.794602748 69.0
55.799526604 70.0
55.804450460 65.0
55.809374316 71.0
55.814298172 61.0
55.819222028 65.0
55.824145884 68.0
55.829069740 66.0
55.833993596 69.0
55.838917452 70.0
55.843841308 58.0
55.848765164 51.0
55.853689020 65.0
55.858612876 58.0
55.863536732 61.0
55.868460588 69.0
55.873384444 57.0
55.878308300 63.0
55.883232156 61.0
55.888156012 53.0
55.893079868 76.0
55.898003724 81.0
55.902927580 63.0
55.907851436 58.0
55.912775292 80.0
55.917699148 64.0
55.922623004 73.0
55.927546860 59.0
55.932470717 68.0
55.937394573 65.0
55.942318429 61.0
55.947242285 74.0
55.952166141 74.0
55.957089997 61.0
55.962013853 69.0
55.966937709 72.0
55.971861565 71.0
55.976785421 79.0
55.981709277 55.0
55.986633133 67.0
55.991556989 60.0
55.996480845 74.0
56.001404701 83.0
56.006328557 60.0
56.011252413 68.0
56.016176269 70.0
56.021100125 57.0
56.026023981 65.0
56.030947837 73.0
56.035871693 54.0
56.040795549 50.0
56.045719405 59.0
56.050643261 64.0
56.055567117 80.0
56.060490973 57.0
56.065414829 87.0
56.070338685 77.0
56.075262541 74.0
56.080186397 70.0
56.085110253 75.0
56.090034109 75.0
56.094957965 65.0
56.099881821 82.0
56.104805677 60.0
56.109729533 68.0
56.114653389 70.0
56.119577245 69.0
56.124501101 77.0
56.129424957 65.0
56.134348813 68.0
56.139272669 77.0
56.144196525 57.0
56.149120381 60.0
56.154044237 86.0
56.158968093 82.0
56.163891949 65.0
56.168815805 60.0
56.173739661 78.0
56.178663517 77.0
56.183587373 58.0
56.188511229 53.0
56.193435085 57.0
56.198358941 64.0
56.203282797 74.0
56.208206653 66.0
56.213130509 69.0
56.218054365 53.0
56.222978221 63.0
56.227902077 70.0
56.232825933 61.0
56.237749789 73.0
56.242673645 64.0
56.247597501 62.0
56.252521357 72.0
56.257445213 66.0
56.262369069 69.0
56.267292925 68.0
56.272216781 61.0
56.277140637 62.0
56.282064493 68.0
56.286988349 78.0
56.291912205 69.0
56.296836061 57.0
56.301759918 65.0
56.306683774 62.0
56.311607630 75.0
56.316531486 60.0
56.321455342 52.0
56.326379198 73.0
56.331303054 67.0
56.336226910 64.0
56.341150766 71.0
56.346074622 55.0
56.350998478 60.0
56.355922334 67.0
56.360846190 66.0
56.365770046 61.0
56.370693902 57.0
56.375617758 87.0
56.380541614 70.0
56.385465470 58.0
56.390389326 73.0
56.395313182 71.0
56.400237038 71.0
56.405160894 56.0
56.410084750 60.0
56.415008606 57.0
56.419932462 63.0
56.424856318 67.0
56.429780174 76.0
56.434704030 59.0
56.439627886 63.0
56.444551742 75.0
56.449475598 79.0
56.454399454 65.0
56.459323310 63.0
56.464247166 54.0
56.469171022 65.0
56.474094878 71.0
56.479018734 56.0
56.483942590 52.0
56.488866446 82.0
56.493790302 71.0
56.498714158 62.0
56.503638014 65.0
56.508561870 72.0
56.513485726 75.0
56.518409582 66.0
56.523333438 55.0
56.528257294 69.0
56.533181150 63.0
56.538105006 77.0
56.543028862 74.0
56.547952718 63.0
56.552876574 67.0
56.557800430 70.0
56.562724286 66.0
56.567648142 50.0
56.572571998 53.0
56.577495854 71.0
56.582419710 60.0
56.587343566 64.0
56.592267422 57.0
56.597191278 61.0
56.602115134 68.0
56.607038990 64.0
56.611962846 52.0
56.616886702 58.0
56.621810558 70.0
56.626734414 75.0
56.631658270 58.0
56.636582126 83.0
56.641505982 52.0
56.646429838 58.0
56.651353694 60.0
56.656277550 56.0
56.661201406 67.0
56.666125262 69.0
56.671049119 71.0
56.675972975 70.0
56.680896831 61.0
56.685820687 77.0
56.690744543 66.0
56.695668399 67.0
56.700592255 65.0
56.705516111 68.0
56.710439967 80.0
56.715363823 63.0
56.720287679 74.0
56.725211535 58.0
56.730135391 60.0
56.735059247 71.0
56.739983103 77.0
56.744906959 84.0
56.749830815 62.0
56.754754671 70.0
56.759678527 57.0
56.764602383 69.0
56.769526239 69.0
56.774450095 54.0
56.779373951 59.0
56.784297807 69.0
56.789221663 75.0
56.794145519 66.0
56.799069375 52.0
56.803993231 77.0
56.808917087 67.0
56.813840943 56.0
56.818764799 69.0
56.823688655 70.0
56.828612511 49.0
56.833536367 68.0
56.838460223 61.0
56.843384079 71.0
56.848307935 64.0
56.853231791 48.0
56.858155647 66.0
56.863079503 59.0
56.868003359 65.0
56.872927215 69.0
56.877851071 54.0
56.882774927 70.0
56.887698783 43.0
56.892622639 55.0
56.897546495 70.0
56.902470351 66.0
56.907394207 68.0
56.912318063 67.0
56.917241919 60.0
56.922165775 71.0
56.927089631 58.0
56.932013487 62.0
56.936937343 62.0
56.941861199 65.0
56.946785055 77.0
56.951708911 62.0
56.956632767 62.0
56.961556623 70.0
56.966480479 52.0
56.971404335 53.0
56.976328191 71.0
56.981252047 63.0
56.986175903 63.0
56.991099759 67.0
56.996023615 53.0
57.000947471 75.0
57.005871327 57.0
57.010795183 57.0
57.015719039 55.0
57.020642895 57.0
57.025566751 64.0
57.030490607 59.0
57.035414463 63.0
57.040338320 42.0
57.045262176 61.0
57.050186032 78.0
57.055109888 53.0
57.060033744 64.0
57.064957600 64.0
57.069881456 70.0
57.074805312 62.0
57.079729168 72.0
57.084653024 64.0
57.089576880 75.0
57.094500736 80.0
57.099424592 60.0
57.104348448 66.0
57.109272304 60.0
57.114196160 66.0
57.119120016 57.0
57.124043872 64.0
57.128967728 76.0
57.133891584 69.0
57.138815440 51.0
57.143739296 66.0
57.148663152 61.0
57.153587008 70.0
57.158510864 64.0
57.163434720 68.0
57.168358576 57.0
57.173282432 71.0
57.178206288 73.0
57.183130144 60.0
57.188054000 65.0
57.192977856 58.0
57.197901712 71.0
57.202825568 46.0
57.207749424 64.0
57.212673280 71.0
57.217597136 75.0
57.222520992 63.0
57.227444848 66.0
57.232368704 64.0
57.237292560 60.0
57.242216416 76.0
57.247140272 79.0
57.252064128 69.0
57.256987984 72.0
57.261911840 65.0
57.266835696 58.0
57.271759552 73.0
57.276683408 67.0
57.281607264 61.0
57.286531120 64.0
57.291454976 60.0
57.296378832 54.0
57.301302688 61.0
57.306226544 57.0
57.311150400 68.0
57.316074256 80.0
57.320998112 50.0
57.325921968 74.0
57.330845824 76.0
57.335769680 68.0
57.340693536 66.0
57.345617392 63.0
57.350541248 61.0
57.355465104 51.0
57.360388960 48.0
57.365312816 57.0
57.370236672 54.0
57.375160528 63.0
57.380084384 70.0
57.385008240 61.0
57.389932096 53.0
57.394855952 62.0
57.399779808 69.0
57.404703664 77.0
57.409627521 66.0
57.414551377 78.0
57.419475233 60.0
57.424399089 88.0
57.429322945 60.0
57.434246801 62.0
57.439170657 80.0
57.444094513 67.0
57.449018369 72.0
57.453942225 54.0
57.458866081 60.0
57.463789937 61.0
57.468713793 70.0
57.473637649 63.0
57.478561505 69.0
57.483485361 75.0
57.488409217 85.0
57.493333073 61.0
57.498256929 55.0
57.503180785 76.0
57.508104641 67.0
57.513028497 70.0
57.517952353 68.0
57.522876209 74.0
57.527800065 48.0
57.532723921 63.0
57.537647777 75.0
57.542571633 67.0
57.547495489 62.0
57.552419345 53.0
57.557343201 69.0
57.562267057 66.0
57.567190913 66.0
57.572114769 71.0
57.577038625 81.0
57.581962481 69.0
57.586886337 70.0
57.591810193 58.0
57.596734049 74.0
57.601657905 80.0
57.606581761 58.0
57.611505617 71.0
57.616429473 68.0
57.621353329 71.0
57.626277185 71.0
57.631201041 64.0
57.636124897 79.0
57.641048753 69.0
57.645972609 56.0
57.650896465 64.0
57.655820321 63.0
57.660744177 77.0
57.665668033 66.0
57.670591889 72.0
57.675515745 62.0
57.680439601 61.0
57.685363457 69.0
57.690287313 69.0
57.695211169 92.0
57.700135025 57.0
57.705058881 63.0
57.709982737 69.0
57.714906593 72.0
57.719830449 57.0
57.724754305 66.0
57.729678161 70.0
57.734602017 60.0
57.739525873 51.0
57.744449729 56.0
57.749373585 58.0
57.754297441 62.0
57.759221297 68.0
57.764145153 61.0
57.769069009 66.0
57.773992865 63.0
57.778916721 87.0
57.783840578 70.0
57.788764434 66.0
57.793688290 72.0
57.798612146 81.0
57.803536002 58.0
57.808459858 75.0
57.813383714 66.0
57.818307570 63.0
57.823231426 56.0
57.828155282 97.0
57.833079138 64.0
57.838002994 65.0
57.842926850 69.0
57.847850706 79.0
57.852774562 62.0
57.857698418 78.0
57.862622274 84.0
57.867546130 43.0
57.872469986 83.0
57.877393842 82.0
57.882317698 72.0
57.887241554 70.0
57.892165410 72.0
57.897089266 63.0
57.902013122 87.0
57.906936978 65.0
57.911860834 73.0
57.916784690 76.0
57.921708546 81.0
57.926632402 85.0
57.931556258 71.0
57.936480114 82.0
57.941403970 73.0
57.946327826 67.0
57.951251682 59.0
57.956175538 71.0
57.961099394 63.0
57.966023250 88.0
57.970947106 72.0
57.975870962 75.0
57.980794818 75.0
57.985718674 85.0
57.990642530 75.0
57.995566386 62.0
58.000490242 86.0
58.005414098 81.0
58.010337954 79.0
58.015261810 86.0
58.020185666 81.0
58.025109522 88.0
58.030033378 84.0
58.034957234 97.0
58.039881090 75.0
58.044804946 76.0
58.049728802 96.0
58.054652658 96.0
58.059576514 79.0
58.064500370 81.0
58.069424226 74.0
58.074348082 86.0
58.079271938 96.0
58.084195794 90.0
58.089119650 84.0
58.094043506 78.0
58.098967362 86.0
58.103891218 86.0
58.108815074 61.0
58.113738930 79.0
58.118662786 90.0
58.123586642 75.0
58.128510498 73.0
58.133434354 84.0
58.138358210 85.0
58.143282066 74.0
58.148205922 81.0
58.153129779 87.0
58.158053635 72.0
58.162977491 83.0
58.167901347 68.0
58.172825203 72.0
58.177749059 62.0
58.182672915 84.0
58.187596771 71.0
58.192520627 79.0
58.197444483 69.0
58.202368339 82.0
58.207292195 65.0
58.212216051 68.0
58.217139907 76.0
58.222063763 73.0
58.226987619 63.0
58.231911475 68.0
58.236835331 66.0
58.241759187 72.0
58.246683043 63.0
58.251606899 54.0
58.256530755 75.0
58.261454611 73.0
58.266378467 79.0
58.271302323 51.0
58.276226179 62.0
58.281150035 80.0
58.286073891 51.0
58.290997747 85.0
58.295921603 60.0
58.300845459 63.0
58.305769315 58.0
58.310693171 54.0
58.315617027 75.0
58.320540883 82.0
58.325464739 61.0
58.330388595 74.0
58.335312451 67.0
58.340236307 78.0
58.345160163 71.0
58.350084019 70.0
58.355007875 59.0
58.359931731 48.0
58.364855587 69.0
58.369779443 78.0
58.374703299 68.0
58.379627155 65.0
58.384551011 69.0
58.389474867 70.0
58.394398723 73.0
58.399322579 69.0
58.404246435 72.0
58.409170291 60.0
58.414094147 65.0
58.419018003 55.0
58.423941859 57.0
58.428865715 56.0
58.433789571 69.0
58.438713427 67.0
58.443637283 58.0
58.448561139 59.0
58.453484995 67.0
58.458408851 62.0
58.463332707 71.0
58.468256563 73.0
58.473180419 77.0
58.478104275 68.0
58.483028131 47.0
58.487951987 58.0
58.492875843 51.0
58.497799699 65.0
58.502723555 60.0
58.507647411 63.0
58.512571267 80.0
58.517495123 74.0
58.522418980 55.0
58.527342836 56.0
58.532266692 72.0
58.537190548 77.0
58.542114404 61.0
58.547038260 55.0
58.551962116 69.0
58.556885972 66.0
58.561809828 47.0
58.566733684 60.0
58.571657540 54.0
58.576581396 68.0
58.581505252 59.0
58.586429108 67.0
58.591352964 66.0
58.596276820 64.0
58.601200676 57.0
58.606124532 76.0
58.611048388 70.0
58.615972244 69.0
58.620896100 69.0
58.625819956 71.0
58.630743812 55.0
58.635667668 71.0
58.640591524 84.0
58.645515380 68.0
58.650439236 67.0
58.655363092 70.0
58.660286948 56.0
58.665210804 70.0
58.670134660 48.0
58.675058516 62.0
58.679982372 72.0
58.684906228 59.0
58.689830084 72.0
58.694753940 61.0
58.699677796 69.0
58.704601652 70.0
58.709525508 59.0
58.714449364 72.0
58.719373220 70.0
58.724297076 62.0
58.729220932 70.0
58.734144788 67.0
58.739068644 66.0
58.743992500 73.0
58.748916356 62.0
58.753840212 61.0
58.758764068 72.0
58.763687924 67.0
58.768611780 61.0
58.773535636 52.0
58.778459492 61.0
58.783383348 71.0
58.788307204 74.0
58.793231060 71.0
58.798154916 62.0
58.803078772 69.0
58.808002628 68.0
58.812926484 69.0
58.817850340 73.0
58.822774196 68.0
58.827698052 63.0
58.832621908 69.0
58.837545764 71.0
58.842469620 63.0
58.847393476 83.0
58.852317332 51.0
58.857241188 76.0
58.862165044 61.0
58.867088900 66.0
58.872012756 51.0
58.876936612 66.0
58.881860468 69.0
58.886784324 73.0
58.891708181 72.0
58.896632037 60.0
58.901555893 61.0
58.906479749 67.0
58.911403605 79.0
58.916327461 76.0
58.921251317 60.0
58.926175173 57.0
58.931099029 69.0
58.936022885 59.0
58.940946741 80.0
58.945870597 47.0
58.950794453 80.0
58.955718309 72.0
58.960642165 56.0
58.965566021 63.0
58.970489877 63.0
58.975413733 57.0
58.980337589 70.0
58.985261445 68.0
58.990185301 77.0
58.995109157 56.0
59.000033013 75.0
59.004956869 70.0
59.009880725 66.0
59.014804581 76.0
59.019728437 60.0
59.024652293 77.0
59.029576149 68.0
59.034500005 76.0
59.039423861 63.0
59.044347717 71.0
59.049271573 58.0
59.054195429 68.0
59.059119285 69.0
59.064043141 55.0
59.068966997 63.0
59.073890853 69.0
59.078814709 72.0
59.083738565 78.0
59.088662421 85.0
59.093586277 65.0
59.098510133 71.0
59.103433989 75.0
59.108357845 72.0
59.113281701 57.0
59.118205557 76.0
59.123129413 73.0
59.128053269 76.0
59.132977125 62.0
59.137900981 88.0
59.142824837 59.0
59.147748693 56.0
59.152672549 46.0
59.157596405 59.0
59.162520261 64.0
59.167444117 61.0
59.172367973 47.0
59.177291829 60.0
59.182215685 73.0
59.187139541 67.0
59.192063397 51.0
59.196987253 69.0
59.201911109 70.0
59.206834965 73.0
59.211758821 71.0
59.216682677 68.0
59.221606533 59.0
59.226530389 63.0
59.231454245 65.0
59.236378101 56.0
59.241301957 61.0
59.246225813 74.0
59.251149669 58.0
59.256073525 59.0
59.260997382 53.0
59.265921238 67.0
59.270845094 70.0
59.275768950 61.0
59.280692806 86.0
59.285616662 58.0
59.290540518 69.0
59.295464374 67.0
59.300388230 57.0
59.305312086 68.0
59.310235942 57.0
59.315159798 77.0
59.320083654 55.0
59.325007510 69.0
59.329931366 68.0
59.334855222 82.0
59.339779078 79.0
59.344702934 71.0
59.349626790 78.0
59.354550646 59.0
59.359474502 79.0
59.364398358 60.0
59.369322214 88.0
59.374246070 67.0
59.379169926 64.0
59.384093782 76.0
59.389017638 54.0
59.393941494 55.0
59.398865350 66.0
59.403789206 61.0
59.408713062 55.0
59.413636918 67.0
59.418560774 58.0
59.423484630 69.0
59.428408486 58.0
59.433332342 63.0
59.438256198 63.0
59.443180054 64.0
59.448103910 67.0
59.453027766 54.0
59.457951622 66.0
59.462875478 40.0
59.467799334 71.0
59.472723190 79.0
59.477647046 64.0
59.482570902 67.0
59.487494758 43.0
59.492418614 77.0
59.497342470 70.0
59.502266326 72.0
59.507190182 70.0
59.512114038 63.0
59.517037894 79.0
59.521961750 69.0
59.526885606 71.0
59.531809462 71.0
59.536733318 80.0
59.541657174 56.0
59.546581030 60.0
59.551504886 69.0
59.556428742 64.0
59.561352598 62.0
59.566276454 69.0
59.571200310 70.0
59.576124166 73.0
59.581048022 78.0
59.585971878 56.0
59.590895734 67.0
59.595819590 67.0
59.600743446 50.0
59.605667302 54.0
59.610591158 64.0
59.615515014 64.0
59.620438870 57.0
59.625362726 68.0
59.630286582 78.0
59.635210439 73.0
59.640134295 61.0
59.645058151 74.0
59.649982007 48.0
59.654905863 71.0
59.659829719 57.0
59.664753575 65.0
59.669677431 76.0
59.674601287 70.0
59.679525143 76.0
59.684448999 50.0
59.689372855 72.0
59.694296711 61.0
59.699220567 64.0
59.704144423 68.0
59.709068279 60.0
59.713992135 63.0
59.718915991 67.0
59.723839847 55.0
59.728763703 65.0
59.733687559 74.0
59.738611415 59.0
59.743535271 68.0
59.748459127 69.0
59.753382983 78.0
59.758306839 59.0
59.763230695 73.0
59.768154551 63.0
59.773078407 69.0
59.778002263 72.0
59.782926119 60.0
59.787849975 76.0
59.792773831 56.0
59.797697687 59.0
59.802621543 58.0
59.807545399 61.0
59.812469255 69.0
59.817393111 61.0
59.822316967 53.0
59.827240823 67.0
59.832164679 60.0
59.837088535 75.0
59.842012391 77.0
59.846936247 70.0
59.851860103 82.0
59.856783959 76.0
59.861707815 58.0
59.866631671 69.0
59.871555527 50.0
59.876479383 74.0
59.881403239 67.0
59.886327095 65.0
59.891250951 63.0
59.896174807 56.0
59.901098663 58.0
59.906022519 64.0
59.910946375 69.0
59.915870231 55.0
59.920794087 66.0
59.925717943 59.0
59.930641799 65.0
59.935565655 58.0
59.940489511 69.0
59.945413367 63.0
59.950337223 69.0
59.955261079 61.0
59.960184935 82.0
59.965108791 66.0
59.970032647 58.0
59.974956503 67.0
59.979880359 69.0
59.984804215 76.0
59.989728071 63.0
59.994651927 67.0
59.999575783 51.0
60.004499640 69.0
60.009423496 71.0
60.014347352 89.0
60.019271208 55.0
60.024195064 66.0
60.029118920 66.0
60.034042776 64.0
60.038966632 65.0
60.043890488 53.0
60.048814344 74.0
60.053738200 54.0
60.058662056 52.0
60.063585912 76.0
60.068509768 74.0
60.073433624 69.0
60.078357480 69.0
60.083281336 61.0
60.088205192 66.0
60.093129048 65.0
60.098052904 65.0
60.102976760 66.0
60.107900616 78.0
60.112824472 79.0
60.117748328 75.0
60.122672184 51.0
60.127596040 66.0
60.132519896 67.0
60.137443752 71.0
60.142367608 61.0
60.147291464 73.0
60.152215320 65.0
60.157139176 69.0
60.162063032 73.0
60.166986888 64.0
60.171910744 77.0
60.176834600 56.0
60.181758456 75.0
60.186682312 73.0
60.191606168 88.0
60.196530024 74.0
60.201453880 54.0
60.206377736 82.0
60.211301592 54.0
60.216225448 80.0
60.221149304 58.0
60.226073160 56.0
60.230997016 55.0
60.235920872 70.0
60.240844728 75.0
60.245768584 68.0
60.250692440 63.0
60.255616296 61.0
60.260540152 61.0
60.265464008 61.0
60.270387864 59.0
60.275311720 76.0
60.280235576 90.0
60.285159432 59.0
60.290083288 75.0
60.295007144 81.0
60.299931000 73.0
60.304854856 59.0
60.309778712 100.0
60.314702568 66.0
60.319626424 68.0
60.324550280 82.0
60.329474136 74.0
60.334397992 80.0
60.339321848 72.0
60.344245704 75.0
60.349169560 78.0
60.354093416 62.0
60.359017272 76.0
60.363941128 55.0
60.368864984 62.0
60.373788841 71.0
60.378712697 68.0
60.383636553 79.0
60.388560409 77.0
60.393484265 88.0
60.398408121 65.0
60.403331977 76.0
60.408255833 77.0
60.413179689 77.0
60.418103545 70.0
60.423027401 67.0
60.427951257 66.0
60.432875113 70.0
60.437798969 76.0
60.442722825 63.0
60.447646681 101.0
60.452570537 48.0
60.457494393 70.0
60.462418249 77.0
60.467342105 65.0
60.472265961 74.0
60.477189817 61.0
60.482113673 74.0
60.487037529 58.0
60.491961385 63.0
60.496885241 80.0
60.501809097 81.0
60.506732953 71.0
60.511656809 62.0
60.516580665 68.0
60.521504521 68.0
60.526428377 78.0
60.531352233 60.0
60.536276089 66.0
60.541199945 77.0
60.546123801 72.0
60.551047657 84.0
60.555971513 67.0
60.560895369 75.0
60.565819225 68.0
60.570743081 69.0
60.575666937 79.0
60.580590793 61.0
60.585514649 58.0
60.590438505 58.0
60.595362361 77.0
60.600286217 69.0
60.605210073 72.0
60.610133929 72.0
60.615057785 64.0
60.619981641 92.0
60.624905497 76.0
60.629829353 67.0
60.634753209 80.0
60.639677065 75.0
60.644600921 92.0
60.649524777 79.0
60.654448633 72.0
60.659372489 68.0
60.664296345 76.0
60.669220201 65.0
60.674144057 88.0
60.679067913 80.0
60.683991769 63.0
60.688915625 66.0
60.693839481 63.0
60.698763337 77.0
60.703687193 81.0
60.708611049 76.0
60.713534905 87.0
60.718458761 79.0
60.723382617 102.0
60.728306473 81.0
60.733230329 82.0
60.738154185 92.0
60.743078042 84.0
60.748001898 93.0
60.752925754 102.0
60.757849610 128.0
60.762773466 128.0
60.767697322 115.0
60.772621178 119.0
60.777545034 137.0
60.782468890 157.0
60.787392746 170.0
60.792316602 167.0
60.797240458 203.0
60.802164314 261.0
60.807088170 282.0
60.812012026 376.0
60.816935882 435.0
60.821859738 457.0
60.826783594 546.0
60.831707450 623.0
60.836631306 703.0
60.841555162 733.0
60.846479018 726.0
60.851402874 737.0
60.856326730 719.0
60.861250586 646.0
60.866174442 663.0
60.871098298 514.0
60.876022154 525.0
60.880946010 417.0
60.885869866 381.0
60.890793722 315.0
60.895717578 333.0
60.900641434 354.0
60.905565290 341.0
60.910489146 314.0
60.915413002 308.0
60.920336858 314.0
60.925260714 355.0
60.930184570 305.0
60.935108426 321.0
60.940032282 290.0
60.944956138 230.0
60.949879994 201.0
60.954803850 180.0
60.959727706 185.0
60.964651562 152.0
60.969575418 149.0
60.974499274 141.0
60.979423130 139.0
60.984346986 125.0
60.989270842 127.0
60.994194698 113.0
60.999118554 109.0
61.004042410 107.0
61.008966266 105.0
61.013890122 114.0
61.018813978 82.0
61.023737834 92.0
61.028661690 92.0
61.033585546 114.0
61.038509402 77.0
61.043433258 93.0
61.048357114 71.0
61.053280970 88.0
61.058204826 78.0
61.063128682 89.0
61.068052538 72.0
61.072976394 86.0
61.077900250 74.0
61.082824106 77.0
61.087747962 83.0
61.092671818 80.0
61.097595674 86.0
61.102519530 84.0
61.107443386 85.0
61.112367243 77.0
61.117291099 87.0
61.122214955 92.0
61.127138811 92.0
61.132062667 75.0
61.136986523 89.0
61.141910379 90.0
61.146834235 85.0
61.151758091 61.0
61.156681947 67.0
61.161605803 77.0
61.166529659 81.0
61.171453515 91.0
61.176377371 72.0
61.181301227 80.0
61.186225083 94.0
61.191148939 75.0
61.196072795 68.0
61.200996651 81.0
61.205920507 75.0
61.210844363 78.0
61.215768219 78.0
61.220692075 76.0
61.225615931 75.0
61.230539787 76.0
61.235463643 72.0
61.240387499 76.0
61.245311355 89.0
61.250235211 86.0
61.255159067 70.0
61.260082923 75.0
61.265006779 82.0
61.269930635 80.0
61.274854491 76.0
61.279778347 74.0
61.284702203 80.0
61.289626059 60.0
61.294549915 83.0
61.299473771 72.0
61.304397627 83.0
61.309321483 59.0
61.314245339 70.0
61.319169195 69.0
61.324093051 66.0
61.329016907 75.0
61.333940763 87.0
61.338864619 95.0
61.343788475 79.0
61.348712331 69.0
61.353636187 62.0
61.358560043 69.0
61.363483899 86.0
61.368407755 84.0
61.373331611 74.0
61.378255467 87.0
61.383179323 65.0
61.388103179 71.0
61.393027035 70.0
61.397950891 60.0
61.402874747 72.0
61.407798603 70.0
61.412722459 78.0
61.417646315 63.0
61.422570171 80.0
61.427494027 78.0
61.432417883 70.0
61.437341739 74.0
61.442265595 69.0
61.447189451 62.0
61.452113307 78.0
61.457037163 91.0
61.461961019 75.0
61.466884875 74.0
61.471808731 65.0
61.476732587 68.0
61.481656443 80.0
61.486580300 75.0
61.491504156 80.0
61.496428012 84.0
61.501351868 61.0
61.506275724 76.0
61.511199580 70.0
61.516123436 75.0
61.521047292 73.0
61.525971148 77.0
61.530895004 75.0
61.535818860 80.0
61.540742716 82.0
61.545666572 88.0
61.550590428 72.0
61.555514284 69.0
61.560438140 77.0
61.565361996 76.0
61.570285852 68.0
61.575209708 79.0
61.580133564 69.0
61.585057420 69.0
61.589981276 59.0
61.594905132 73.0
61.599828988 75.0
61.604752844 81.0
61.609676700 83.0
61.614600556 92.0
61.619524412 78.0
61.624448268 69.0
61.629372124 74.0
61.634295980 83.0
61.639219836 66.0
61.644143692 73.0
61.649067548 66.0
61.653991404 73.0
61.658915260 73.0
61.663839116 66.0
61.668762972 56.0
61.673686828 85.0
61.678610684 78.0
61.683534540 76.0
61.688458396 84.0
61.693382252 69.0
61.698306108 78.0
61.703229964 84.0
61.708153820 89.0
61.713077676 62.0
61.718001532 53.0
61.722925388 73.0
61.727849244 76.0
61.732773100 74.0
61.737696956 56.0
61.742620812 76.0
61.747544668 60.0
61.752468524 69.0
61.757392380 72.0
61.762316236 83.0
61.767240092 69.0
61.772163948 82.0
61.777087804 83.0
61.782011660 66.0
61.786935516 69.0
61.791859372 70.0
61.796783228 77.0
61.801707084 76.0
61.806630940 71.0
61.811554796 73.0
61.816478652 87.0
61.821402508 75.0
61.826326364 72.0
61.831250220 74.0
61.836174076 73.0
61.841097932 74.0
61.846021788 67.0
61.850945644 70.0
61.855869501 61.0
61.860793357 67.0
61.865717213 76.0
61.870641069 67.0
61.875564925 90.0
61.880488781 75.0
61.885412637 71.0
61.890336493 69.0
61.895260349 56.0
61.900184205 71.0
61.905108061 80.0
61.910031917 65.0
61.914955773 81.0
61.919879629 73.0
61.924803485 66.0
61.929727341 72.0
61.934651197 78.0
61.939575053 89.0
61.944498909 78.0
61.949422765 76.0
61.954346621 67.0
61.959270477 68.0
61.964194333 80.0
61.969118189 75.0
61.974042045 85.0
61.978965901 75.0
61.983889757 74.0
61.988813613 76.0
61.993737469 72.0
61.998661325 79.0
62.003585181 82.0
62.008509037 91.0
62.013432893 82.0
62.018356749 71.0
62.023280605 87.0
62.028204461 72.0
62.033128317 79.0
62.038052173 68.0
62.042976029 65.0
62.047899885 79.0
62.052823741 84.0
62.057747597 80.0
62.062671453 81.0
62.067595309 62.0
62.072519165 72.0
62.077443021 69.0
62.082366877 75.0
62.087290733 71.0
62.092214589 77.0
62.097138445 71.0
62.102062301 75.0
62.106986157 80.0
62.111910013 73.0
62.116833869 74.0
62.121757725 69.0
62.126681581 77.0
62.131605437 81.0
62.136529293 72.0
62.141453149 69.0
62.146377005 76.0
62.151300861 76.0
62.156224717 76.0
62.161148573 85.0
62.166072429 60.0
62.170996285 72.0
62.175920141 66.0
62.180843997 67.0
62.185767853 71.0
62.190691709 62.0
62.195615565 62.0
62.200539421 65.0
62.205463277 74.0
62.210387133 75.0
62.215310989 67.0
62.220234845 67.0
62.225158702 87.0
62.230082558 80.0
62.235006414 76.0
62.239930270 68.0
62.244854126 76.0
62.249777982 82.0
62.254701838 71.0
62.259625694 75.0
62.264549550 91.0
62.269473406 71.0
62.274397262 69.0
62.279321118 71.0
62.284244974 85.0
62.289168830 73.0
62.294092686 71.0
62.299016542 76.0
62.303940398 77.0
62.308864254 78.0
62.313788110 67.0
62.318711966 61.0
62.323635822 75.0
62.328559678 94.0
62.333483534 89.0
62.338407390 73.0
62.343331246 58.0
62.348255102 47.0
62.353178958 84.0
62.358102814 70.0
62.363026670 77.0
62.367950526 57.0
62.372874382 87.0
62.377798238 82.0
62.382722094 77.0
62.387645950 80.0
62.392569806 80.0
62.397493662 77.0
62.402417518 76.0
62.407341374 74.0
62.412265230 88.0
62.417189086 65.0
62.422112942 58.0
62.427036798 70.0
62.431960654 83.0
62.436884510 79.0
62.441808366 67.0
62.446732222 79.0
62.451656078 61.0
62.456579934 68.0
62.461503790 90.0
62.466427646 58.0
62.471351502 61.0
62.476275358 59.0
62.481199214 69.0
62.486123070 62.0
62.491046926 62.0
62.495970782 85.0
62.500894638 72.0
62.505818494 83.0
62.510742350 72.0
62.515666206 80.0
62.520590062 89.0
62.525513918 77.0
62.530437774 79.0
62.535361630 69.0
62.540285486 67.0
62.545209342 90.0
62.550133198 79.0
62.555057054 78.0
62.559980910 67.0
62.564904766 69.0
62.569828622 67.0
62.574752478 80.0
62.579676334 84.0
62.584600190 66.0
62.589524046 78.0
62.594447903 77.0
62.599371759 70.0
62.604295615 73.0
62.609219471 76.0
62.614143327 74.0
62.619067183 92.0
62.623991039 70.0
62.628914895 82.0
62.633838751 72.0
62.638762607 96.0
62.643686463 79.0
62.648610319 74.0
62.653534175 78.0
62.658458031 48.0
62.663381887 69.0
62.668305743 75.0
62.673229599 71.0
62.678153455 92.0
62.683077311 75.0
62.688001167 72.0
62.692925023 77.0
62.697848879 73.0
62.702772735 64.0
62.707696591 88.0
62.712620447 83.0
62.717544303 86.0
62.722468159 91.0
62.727392015 66.0
62.732315871 77.0
62.737239727 64.0
62.742163583 69.0
62.747087439 84.0
62.752011295 77.0
62.756935151 68.0
62.761859007 68.0
62.766782863 80.0
62.771706719 77.0
62.776630575 86.0
62.781554431 76.0
62.786478287 84.0
62.791402143 65.0
62.796325999 83.0
62.801249855 80.0
62.806173711 75.0
62.811097567 73.0
62.816021423 67.0
62.820945279 78.0
62.825869135 70.0
62.830792991 83.0
62.835716847 67.0
62.840640703 102.0
62.845564559 84.0
62.850488415 67.0
62.855412271 84.0
62.860336127 80.0
62.865259983 78.0
62.870183839 88.0
62.875107695 77.0
62.880031551 79.0
62.884955407 66.0
62.889879263 88.0
62.894803119 86.0
62.899726975 91.0
62.904650831 82.0
62.909574687 69.0
62.914498543 67.0
62.919422399 66.0
62.924346255 66.0
62.929270111 74.0
62.934193967 80.0
62.939117823 84.0
62.944041679 82.0
62.948965535 90.0
62.953889391 77.0
62.958813247 78.0
62.963737104 88.0
62.968660960 80.0
62.973584816 79.0
62.978508672 88.0
62.983432528 74.0
62.988356384 81.0
62.993280240 77.0
62.998204096 70.0
63.003127952 85.0
63.008051808 87.0
63.012975664 72.0
63.017899520 71.0
63.022823376 82.0
63.027747232 62.0
63.032671088 78.0
63.037594944 81.0
63.042518800 75.0
63.047442656 74.0
63.052366512 81.0
63.057290368 78.0
63.062214224 93.0
63.067138080 91.0
63.072061936 83.0
63.076985792 77.0
63.081909648 78.0
63.086833504 65.0
63.091757360 62.0
63.096681216 91.0
63.101605072 81.0
63.106528928 89.0
63.111452784 59.0
63.116376640 65.0
63.121300496 86.0
63.126224352 76.0
63.131148208 79.0
63.136072064 71.0
63.140995920 79.0
63.145919776 84.0
63.150843632 96.0
63.155767488 88.0
63.160691344 80.0
63.165615200 68.0
63.170539056 77.0
63.175462912 89.0
63.180386768 73.0
63.185310624 90.0
63.190234480 72.0
63.195158336 59.0
63.200082192 76.0
63.205006048 85.0
63.209929904 76.0
63.214853760 81.0
63.219777616 67.0
63.224701472 87.0
63.229625328 87.0
63.234549184 80.0
63.239473040 89.0
63.244396896 90.0
63.249320752 86.0
63.254244608 77.0
63.259168464 78.0
63.264092320 87.0
63.269016176 77.0
63.273940032 85.0
63.278863888 85.0
63.283787744 98.0
63.288711600 62.0
63.293635456 88.0
63.298559312 78.0
63.303483168 84.0
63.308407024 77.0
63.313330880 76.0
63.318254736 98.0
63.323178592 99.0
63.328102448 93.0
63.333026304 94.0
63.337950161 83.0
63.342874017 69.0
63.347797873 76.0
63.352721729 87.0
63.357645585 79.0
63.362569441 76.0
63.367493297 83.0
63.372417153 107.0
63.377341009 80.0
63.382264865 81.0
63.387188721 91.0
63.392112577 76.0
63.397036433 88.0
63.401960289 89.0
63.406884145 89.0
63.411808001 100.0
63.416731857 70.0
63.421655713 89.0
63.426579569 100.0
63.431503425 77.0
63.436427281 83.0
63.441351137 81.0
63.446274993 81.0
63.451198849 93.0
63.456122705 78.0
63.461046561 99.0
63.465970417 82.0
63.470894273 81.0
63.475818129 67.0
63.480741985 96.0
63.485665841 99.0
63.490589697 97.0
63.495513553 86.0
63.500437409 96.0
63.505361265 84.0
63.510285121 85.0
63.515208977 77.0
63.520132833 105.0
63.525056689 90.0
63.529980545 86.0
63.534904401 98.0
63.539828257 87.0
63.544752113 72.0
63.549675969 78.0
63.554599825 79.0
63.559523681 94.0
63.564447537 93.0
63.569371393 78.0
63.574295249 86.0
63.579219105 99.0
63.584142961 95.0
63.589066817 97.0
63.593990673 92.0
63.598914529 106.0
63.603838385 90.0
63.608762241 98.0
63.613686097 95.0
63.618609953 100.0
63.623533809 109.0
63.628457665 98.0
63.633381521 89.0
63.638305377 91.0
63.643229233 95.0
63.648153089 82.0
63.653076945 110.0
63.658000801 91.0
63.662924657 84.0
63.667848513 92.0
63.672772369 98.0
63.677696225 83.0
63.682620081 102.0
63.687543937 89.0
63.692467793 96.0
63.697391649 86.0
63.702315505 91.0
63.707239362 82.0
63.712163218 82.0
63.717087074 128.0
63.722010930 87.0
63.726934786 83.0
63.731858642 92.0
63.736782498 82.0
63.741706354 103.0
63.746630210 85.0
63.751554066 87.0
63.756477922 108.0
63.761401778 95.0
63.766325634 85.0
63.771249490 112.0
63.776173346 104.0
63.781097202 104.0
63.786021058 96.0
63.790944914 118.0
63.795868770 107.0
63.800792626 107.0
63.805716482 105.0
63.810640338 118.0
63.815564194 96.0
63.820488050 99.0
63.825411906 105.0
63.830335762 78.0
63.835259618 128.0
63.840183474 106.0
63.845107330 104.0
63.850031186 98.0
63.854955042 99.0
63.859878898 105.0
63.864802754 95.0
63.869726610 103.0
63.874650466 105.0
63.879574322 104.0
63.884498178 105.0
63.889422034 101.0
63.894345890 103.0
63.899269746 93.0
63.904193602 99.0
63.909117458 105.0
63.914041314 96.0
63.918965170 109.0
63.923889026 94.0
63.928812882 105.0
63.933736738 115.0
63.938660594 100.0
63.943584450 101.0
63.948508306 123.0
63.953432162 88.0
63.958356018 87.0
63.963279874 99.0
63.968203730 119.0
63.973127586 104.0
63.978051442 98.0
63.982975298 124.0
63.987899154 127.0
63.992823010 102.0
63.997746866 103.0
64.002670722 87.0
64.007594578 103.0
64.012518434 103.0
64.017442290 97.0
64.022366146 86.0
64.027290002 111.0
64.032213858 117.0
64.037137714 104.0
64.042061570 125.0
64.046985426 113.0
64.051909282 99.0
64.056833138 128.0
64.061756994 99.0
64.066680850 117.0
64.071604706 116.0
64.076528563 119.0
64.081452419 103.0
64.086376275 128.0
64.091300131 125.0
64.096223987 101.0
64.101147843 123.0
64.106071699 121.0
64.110995555 102.0
64.115919411 131.0
64.120843267 132.0
64.125767123 111.0
64.130690979 143.0
64.135614835 114.0
64.140538691 121.0
64.145462547 109.0
64.150386403 113.0
64.155310259 118.0
64.160234115 133.0
64.165157971 131.0
64.170081827 128.0
64.175005683 112.0
64.179929539 139.0
64.184853395 143.0
64.189777251 115.0
64.194701107 120.0
64.199624963 102.0
64.204548819 112.0
64.209472675 130.0
64.214396531 128.0
64.219320387 139.0
64.224244243 134.0
64.229168099 119.0
64.234091955 151.0
64.239015811 151.0
64.243939667 151.0
64.248863523 153.0
64.253787379 136.0
64.258711235 140.0
64.263635091 148.0
64.268558947 142.0
64.273482803 130.0
64.278406659 148.0
64.283330515 134.0
64.288254371 143.0
64.293178227 155.0
64.298102083 153.0
64.303025939 179.0
64.307949795 152.0
64.312873651 164.0
64.317797507 152.0
64.322721363 134.0
64.327645219 150.0
64.332569075 168.0
64.337492931 163.0
64.342416787 155.0
64.347340643 164.0
64.352264499 195.0
64.357188355 168.0
64.362112211 180.0
64.367036067 156.0
64.371959923 174.0
64.376883779 181.0
64.381807635 184.0
64.386731491 198.0
64.391655347 176.0
64.396579203 204.0
64.401503059 200.0
64.406426915 182.0
64.411350771 181.0
64.416274627 177.0
64.421198483 193.0
64.426122339 200.0
64.431046195 215.0
64.435970051 206.0
64.440893907 211.0
64.445817764 216.0
64.450741620 197.0
64.455665476 272.0
64.460589332 246.0
64.465513188 266.0
64.470437044 272.0
64.475360900 271.0
64.480284756 291.0
64.485208612 250.0
64.490132468 269.0
64.495056324 267.0
64.499980180 267.0
64.504904036 261.0
64.509827892 293.0
64.514751748 302.0
64.519675604 299.0
64.524599460 291.0
64.529523316 319.0
64.534447172 321.0
64.539371028 310.0
64.544294884 334.0
64.549218740 335.0
64.554142596 374.0
64.559066452 375.0
64.563990308 375.0
64.568914164 360.0
64.573838020 368.0
64.578761876 393.0
64.583685732 461.0
64.588609588 426.0
64.593533444 442.0
64.598457300 441.0
64.603381156 456.0
64.608305012 483.0
64.613228868 477.0
64.618152724 490.0
64.623076580 505.0
64.628000436 532.0
64.632924292 515.0
64.637848148 562.0
64.642772004 575.0
64.647695860 572.0
64.652619716 609.0
64.657543572 584.0
64.662467428 651.0
64.667391284 616.0
64.672315140 623.0
64.677238996 736.0
64.682162852 741.0
64.687086708 768.0
64.692010564 708.0
64.696934420 788.0
64.701858276 834.0
64.706782132 858.0
64.711705988 842.0
64.716629844 854.0
64.721553700 859.0
64.726477556 913.0
64.731401412 959.0
64.736325268 1056.0
64.741249124 1105.0
64.746172980 1082.0
64.751096836 1134.0
64.756020692 1155.0
64.760944548 1263.0
64.765868404 1305.0
64.770792260 1414.0
64.775716116 1398.0
64.780639972 1398.0
64.785563828 1515.0
64.790487684 1459.0
64.795411540 1617.0
64.800335396 1706.0
64.805259252 1753.0
64.810183108 1865.0
64.815106965 1948.0
64.820030821 2052.0
64.824954677 2068.0
64.829878533 2340.0
64.834802389 2371.0
64.839726245 2494.0
64.844650101 2641.0
64.849573957 2561.0
64.854497813 2785.0
64.859421669 2991.0
64.864345525 3111.0
64.869269381 3109.0
64.874193237 3370.0
64.879117093 3547.0
64.884040949 3708.0
64.888964805 3891.0
64.893888661 4003.0
64.898812517 4094.0
64.903736373 4256.0
64.908660229 4557.0
64.913584085 4589.0
64.918507941 4714.0
64.923431797 4852.0
64.928355653 4917.0
64.933279509 5142.0
64.938203365 5309.0
64.943127221 5232.0
64.948051077 5213.0
64.952974933 5307.0
64.957898789 5240.0
64.962822645 5384.0
64.967746501 5274.0
64.972670357 5170.0
64.977594213 5178.0
64.982518069 5293.0
64.987441925 5082.0
64.992365781 4882.0
64.997289637 4880.0
65.002213493 4894.0
65.007137349 4841.0
65.012061205 4621.0
65.016985061 4535.0
65.021908917 4495.0
65.026832773 4361.0
65.031756629 4280.0
65.036680485 4146.0
65.041604341 4121.0
65.046528197 4104.0
65.051452053 3865.0
65.056375909 3851.0
65.061299765 3781.0
65.066223621 3718.0
65.071147477 3614.0
65.076071333 3717.0
65.080995189 3548.0
65.085919045 3572.0
65.090842901 3500.0
65.095766757 3499.0
65.100690613 3482.0
65.105614469 3468.0
65.110538325 3335.0
65.115462181 3236.0
65.120386037 3330.0
65.125309893 3287.0
65.130233749 3264.0
65.135157605 3272.0
65.140081461 3138.0
65.145005317 3095.0
65.149929173 3042.0
65.154853029 2965.0
65.159776885 2876.0
65.164700741 2762.0
65.169624597 2786.0
65.174548453 2662.0
65.179472309 2567.0
65.184396165 2454.0
65.189320022 2479.0
65.194243878 2352.0
65.199167734 2133.0
65.204091590 2159.0
65.209015446 2005.0
65.213939302 1978.0
65.218863158 1904.0
65.223787014 1749.0
65.228710870 1679.0
65.233634726 1547.0
65.238558582 1502.0
65.243482438 1437.0
65.248406294 1346.0
65.253330150 1289.0
65.258254006 1276.0
65.263177862 1130.0
65.268101718 1068.0
65.273025574 1045.0
65.277949430 946.0
65.282873286 965.0
65.287797142 851.0
65.292720998 820.0
65.297644854 820.0
65.302568710 773.0
65.307492566 729.0
65.312416422 680.0
65.317340278 682.0
65.322264134 632.0
65.327187990 641.0
65.332111846 602.0
65.337035702 585.0
65.341959558 576.0
65.346883414 514.0
65.351807270 500.0
65.356731126 491.0
65.361654982 474.0
65.366578838 459.0
65.371502694 450.0
65.376426550 418.0
65.381350406 411.0
65.386274262 368.0
65.391198118 399.0
65.396121974 379.0
65.401045830 354.0
65.405969686 358.0
65.410893542 316.0
65.415817398 358.0
65.420741254 312.0
65.425665110 332.0
65.430588966 287.0
65.435512822 292.0
65.440436678 296.0
65.445360534 285.0
65.450284390 262.0
65.455208246 298.0
65.460132102 260.0
65.465055958 263.0
65.469979814 255.0
65.474903670 273.0
65.479827526 291.0
65.484751382 263.0
65.489675238 217.0
65.494599094 232.0
65.499522950 258.0
65.504446806 210.0
65.509370662 229.0
65.514294518 232.0
65.519218374 222.0
65.524142230 185.0
65.529066086 199.0
65.533989942 208.0
65.538913798 209.0
65.543837654 210.0
65.548761510 202.0
65.553685366 184.0
65.558609223 201.0
65.563533079 193.0
65.568456935 203.0
65.573380791 208.0
65.578304647 177.0
65.583228503 178.0
65.588152359 200.0
65.593076215 175.0
65.598000071 169.0
65.602923927 155.0
65.607847783 195.0
65.612771639 171.0
65.617695495 170.0
65.622619351 156.0
65.627543207 159.0
65.632467063 170.0
65.637390919 180.0
65.642314775 156.0
65.647238631 164.0
65.652162487 166.0
65.657086343 155.0
65.662010199 163.0
65.666934055 127.0
65.671857911 138.0
65.676781767 142.0
65.681705623 158.0
65.686629479 145.0
65.691553335 131.0
65.696477191 147.0
65.701401047 156.0
65.706324903 120.0
65.711248759 169.0
65.716172615 134.0
65.721096471 127.0
65.726020327 153.0
65.730944183 134.0
65.735868039 153.0
65.740791895 131.0
65.745715751 121.0
65.750639607 130.0
65.755563463 150.0
65.760487319 147.0
65.765411175 153.0
65.770335031 137.0
65.775258887 158.0
65.780182743 148.0
65.785106599 159.0
65.790030455 130.0
65.794954311 154.0
65.799878167 106.0
65.804802023 149.0
65.809725879 124.0
65.814649735 153.0
65.819573591 114.0
65.824497447 133.0
65.829421303 113.0
65.834345159 126.0
65.839269015 135.0
65.844192871 130.0
65.849116727 121.0
65.854040583 98.0
65.858964439 150.0
65.863888295 134.0
65.868812151 127.0
65.873736007 125.0
65.878659863 141.0
65.883583719 110.0
65.888507575 129.0
65.893431431 123.0
65.898355287 125.0
65.903279143 132.0
65.908202999 105.0
65.913126855 123.0
65.918050711 126.0
65.922974567 121.0
65.927898424 123.0
65.932822280 118.0
65.937746136 119.0
65.942669992 117.0
65.947593848 113.0
65.952517704 141.0
65.957441560 146.0
65.962365416 115.0
65.967289272 122.0
65.972213128 141.0
65.977136984 112.0
65.982060840 133.0
65.986984696 129.0
65.991908552 125.0
65.996832408 120.0
66.001756264 120.0
66.006680120 106.0
66.011603976 120.0
66.016527832 129.0
66.021451688 100.0
66.026375544 138.0
66.031299400 118.0
66.036223256 114.0
66.041147112 134.0
66.046070968 108.0
66.050994824 107.0
66.055918680 130.0
66.060842536 139.0
66.065766392 119.0
66.070690248 121.0
66.075614104 130.0
66.080537960 112.0
66.085461816 132.0
66.090385672 119.0
66.095309528 131.0
66.100233384 119.0
66.105157240 133.0
66.110081096 139.0
66.115004952 132.0
66.119928808 122.0
66.124852664 121.0
66.129776520 132.0
66.134700376 120.0
66.139624232 130.0
66.144548088 115.0
66.149471944 143.0
66.154395800 119.0
66.159319656 126.0
66.164243512 143.0
66.169167368 115.0
66.174091224 131.0
66.179015080 106.0
66.183938936 136.0
66.188862792 119.0
66.193786648 117.0
66.198710504 123.0
66.203634360 125.0
66.208558216 142.0
66.213482072 118.0
66.218405928 137.0
66.223329784 112.0
66.228253640 141.0
66.233177496 127.0
66.238101352 130.0
66.243025208 125.0
66.247949064 104.0
66.252872920 139.0
66.257796776 140.0
66.262720632 121.0
66.267644488 119.0
66.272568344 137.0
66.277492200 142.0
66.282416056 149.0
66.287339912 128.0
66.292263768 122.0
66.297187625 108.0
66.302111481 141.0
66.307035337 137.0
66.311959193 141.0
66.316883049 115.0
66.321806905 139.0
66.326730761 136.0
66.331654617 131.0
66.336578473 127.0
66.341502329 152.0
66.346426185 114.0
66.351350041 164.0
66.356273897 129.0
66.361197753 147.0
66.366121609 135.0
66.371045465 153.0
66.375969321 153.0
66.380893177 148.0
66.385817033 149.0
66.390740889 140.0
66.395664745 143.0
66.400588601 147.0
66.405512457 143.0
66.410436313 148.0
66.415360169 120.0
66.420284025 122.0
66.425207881 120.0
66.430131737 145.0
66.435055593 138.0
66.439979449 165.0
66.444903305 152.0
66.449827161 164.0
66.454751017 134.0
66.459674873 136.0
66.464598729 143.0
66.469522585 144.0
66.474446441 134.0
66.479370297 154.0
66.484294153 148.0
66.489218009 129.0
66.494141865 129.0
66.499065721 137.0
66.503989577 130.0
66.508913433 160.0
66.513837289 135.0
66.518761145 156.0
66.523685001 153.0
66.528608857 137.0
66.533532713 147.0
66.538456569 148.0
66.543380425 154.0
66.548304281 165.0
66.553228137 159.0
66.558151993 136.0
66.563075849 139.0
66.567999705 147.0
66.572923561 140.0
66.577847417 151.0
66.582771273 159.0
66.587695129 140.0
66.592618985 153.0
66.597542841 154.0
66.602466697 163.0
66.607390553 158.0
66.612314409 153.0
66.617238265 162.0
66.622162121 164.0
66.627085977 133.0
66.632009833 168.0
66.636933689 151.0
66.641857545 140.0
66.646781401 155.0
66.651705257 160.0
66.656629113 156.0
66.661552969 146.0
66.666476826 147.0
66.671400682 159.0
66.676324538 179.0
66.681248394 177.0
66.686172250 175.0
66.691096106 163.0
66.696019962 174.0
66.700943818 183.0
66.705867674 147.0
66.710791530 176.0
66.715715386 157.0
66.720639242 184.0
66.725563098 134.0
66.730486954 174.0
66.735410810 157.0
66.740334666 165.0
66.745258522 168.0
66.750182378 146.0
66.755106234 170.0
66.760030090 167.0
66.764953946 165.0
66.769877802 148.0
66.774801658 193.0
66.779725514 190.0
66.784649370 147.0
66.789573226 159.0
66.794497082 168.0
66.799420938 163.0
66.804344794 175.0
66.809268650 167.0
66.814192506 170.0
66.819116362 161.0
66.824040218 172.0
66.828964074 167.0
66.833887930 155.0
66.838811786 179.0
66.843735642 169.0
66.848659498 162.0
66.853583354 172.0
66.858507210 183.0
66.863431066 171.0
66.868354922 175.0
66.873278778 165.0
66.878202634 183.0
66.883126490 166.0
66.888050346 153.0
66.892974202 154.0
66.897898058 184.0
66.902821914 171.0
66.907745770 206.0
66.912669626 185.0
66.917593482 159.0
66.922517338 215.0
66.927441194 190.0
66.932365050 188.0
66.937288906 205.0
66.942212762 194.0
66.947136618 203.0
66.952060474 199.0
66.956984330 201.0
66.961908186 210.0
66.966832042 190.0
66.971755898 196.0
66.976679754 204.0
66.981603610 191.0
66.986527466 184.0
66.991451322 191.0
66.996375178 201.0
67.001299034 199.0
67.006222890 187.0
67.011146746 208.0
67.016070602 180.0
67.020994458 203.0
67.025918314 199.0
67.030842170 200.0
67.035766026 186.0
67.040689883 219.0
67.045613739 179.0
67.050537595 203.0
67.055461451 220.0
67.060385307 208.0
67.065309163 212.0
67.070233019 191.0
67.075156875 204.0
67.080080731 221.0
67.085004587 208.0
67.089928443 210.0
67.094852299 280.0
67.099776155 260.0
67.104700011 273.0
67.109623867 220.0
67.114547723 196.0
67.119471579 279.0
67.124395435 267.0
67.129319291 193.0
67.134243147 210.0
67.139167003 209.0
67.144090859 267.0
67.149014715 255.0
67.153938571 259.0
67.158862427 212.0
67.163786283 256.0
67.168710139 277.0
67.173633995 206.0
67.178557851 281.0
67.183481707 218.0
67.188405563 269.0
67.193329419 268.0
67.198253275 259.0
67.203177131 295.0
67.208100987 203.0
67.213024843 284.0
67.217948699 256.0
67.222872555 288.0
67.227796411 270.0
67.232720267 298.0
67.237644123 285.0
67.242567979 282.0
67.247491835 277.0
67.252415691 295.0
67.257339547 262.0
67.262263403 278.0
67.267187259 271.0
67.272111115 278.0
67.277034971 283.0
67.281958827 299.0
67.286882683 279.0
67.291806539 318.0
67.296730395 310.0
67.301654251 309.0
67.306578107 293.0
67.311501963 294.0
67.316425819 294.0
67.321349675 284.0
67.326273531 280.0
67.331197387 316.0
67.336121243 310.0
67.341045099 302.0
67.345968955 307.0
67.350892811 281.0
67.355816667 333.0
67.360740523 308.0
67.365664379 346.0
67.370588235 314.0
67.375512091 329.0
67.380435947 337.0
67.385359803 319.0
67.390283659 369.0
67.395207515 377.0
67.400131371 320.0
67.405055227 341.0
67.409979084 356.0
67.414902940 340.0
67.419826796 365.0
67.424750652 372.0
67.429674508 348.0
67.434598364 396.0
67.439522220 347.0
67.444446076 369.0
67.449369932 379.0
67.454293788 367.0
67.459217644 352.0
67.464141500 373.0
67.469065356 393.0
67.473989212 398.0
67.478913068 346.0
67.483836924 341.0
67.488760780 336.0
67.493684636 377.0
67.498608492 374.0
67.503532348 385.0
67.508456204 402.0
67.513380060 362.0
67.518303916 408.0
67.523227772 356.0
67.528151628 413.0
67.533075484 416.0
67.537999340 394.0
67.542923196 431.0
67.547847052 435.0
67.552770908 427.0
67.557694764 412.0
67.562618620 404.0
67.567542476 405.0
67.572466332 417.0
67.577390188 423.0
67.582314044 457.0
67.587237900 440.0
67.592161756 432.0
67.597085612 415.0
67.602009468 442.0
67.606933324 464.0
67.611857180 475.0
67.616781036 479.0
67.621704892 464.0
67.626628748 464.0
67.631552604 469.0
67.636476460 495.0
67.641400316 499.0
67.646324172 488.0
67.651248028 481.0
67.656171884 538.0
67.661095740 554.0
67.666019596 514.0
67.670943452 550.0
67.675867308 561.0
67.680791164 522.0
67.685715020 531.0
67.690638876 551.0
67.695562732 566.0
67.700486588 595.0
67.705410444 647.0
67.710334300 617.0
67.715258156 670.0
67.720182012 644.0
67.725105868 706.0
67.730029724 752.0
67.734953580 744.0
67.739877436 793.0
67.744801292 798.0
67.749725148 818.0
67.754649004 847.0
67.759572860 905.0
67.764496716 941.0
67.769420572 1049.0
67.774344428 1129.0
67.779268285 1116.0
67.784192141 1188.0
67.789115997 1211.0
67.794039853 1260.0
67.798963709 1355.0
67.803887565 1438.0
67.808811421 1457.0
67.813735277 1534.0
67.818659133 1635.0
67.823582989 1715.0
67.828506845 1659.0
67.833430701 1635.0
67.838354557 1670.0
67.843278413 1694.0
67.848202269 1755.0
67.853126125 1823.0
67.858049981 1618.0
67.862973837 1793.0
67.867897693 1808.0
67.872821549 1825.0
67.877745405 1686.0
67.882669261 1689.0
67.887593117 1733.0
67.892516973 1603.0
67.897440829 1713.0
67.902364685 1603.0
67.907288541 1671.0
67.912212397 1542.0
67.917136253 1647.0
67.922060109 1550.0
67.926983965 1710.0
67.931907821 1653.0
67.936831677 1682.0
67.941755533 1728.0
67.946679389 1710.0
67.951603245 1819.0
67.956527101 1782.0
67.961450957 1882.0
67.966374813 1899.0
67.971298669 1989.0
67.976222525 2012.0
67.981146381 2036.0
67.986070237 2131.0
67.990994093 2270.0
67.995917949 2415.0
68.000841805 2271.0
68.005765661 2662.0
68.010689517 2543.0
68.015613373 2742.0
68.020537229 2914.0
68.025461085 3023.0
68.030384941 3420.0
68.035308797 3563.0
68.040232653 3915.0
68.045156509 4001.0
68.050080365 4576.0
68.055004221 4784.0
68.059928077 5313.0
68.064851933 5513.0
68.069775789 6228.0
68.074699645 6561.0
68.079623501 7544.0
68.084547357 8077.0
68.089471213 9526.0
68.094395069 10156.0
68.099318925 12634.0
68.104242781 13313.0
68.109166637 16874.0
68.114090493 18180.0
68.119014349 24174.0
68.123938205 26788.0
68.128862061 37686.0
68.133785917 45226.0
68.138709773 67775.0
68.143633629 87718.0
68.148557486 125555.0
68.153481342 169012.0
68.158405198 190185.0
68.163329054 225838.0
68.168252910 215710.0
68.173176766 220305.0
68.178100622 188014.0
68.183024478 158302.0
68.187948334 127139.0
68.192872190 91637.0
68.197796046 77249.0
68.202719902 55388.0
68.207643758 47742.0
68.212567614 35009.0
68.217491470 30645.0
68.222415326 22744.0
68.227339182 20589.0
68.232263038 16335.0
68.237186894 14826.0
68.242110750 12703.0
68.247034606 11362.0
68.251958462 10346.0
68.256882318 9589.0
68.261806174 8956.0
68.266730030 8459.0
68.271653886 8494.0
68.276577742 8278.0
68.281501598 8869.0
68.286425454 8555.0
68.291349310 9696.0
68.296273166 9986.0
68.301197022 11532.0
68.306120878 12803.0
68.311044734 14799.0
68.315968590 17504.0
68.320892446 20988.0
68.325816302 26515.0
68.330740158 34608.0
68.335664014 45984.0
68.340587870 60306.0
68.345511726 75699.0
68.350435582 90216.0
68.355359438 99818.0
68.360283294 103516.0
68.365207150 101607.0
68.370131006 93750.0
68.375054862 81113.0
68.379978718 67450.0
68.384902574 53520.0
68.389826430 42547.0
68.394750286 33333.0
68.399674142 26472.0
68.404597998 20646.0
68.409521854 17015.0
68.414445710 13532.0
68.419369566 11533.0
68.424293422 9732.0
68.429217278 8278.0
68.434141134 7201.0
68.439064990 6326.0
68.443988846 5697.0
68.448912702 5119.0
68.453836558 4645.0
68.458760414 4066.0
68.463684270 3822.0
68.468608126 3428.0
68.473531982 3373.0
68.478455838 3168.0
68.483379694 2871.0
68.488303550 2595.0
68.493227406 2682.0
68.498151262 2411.0
68.503075118 2378.0
68.507998974 2294.0
68.512922830 2123.0
68.517846687 2070.0
68.522770543 2001.0
68.527694399 1907.0
68.532618255 1845.0
68.537542111 1756.0
68.542465967 1636.0
68.547389823 1650.0
68.552313679 1638.0
68.557237535 1542.0
68.562161391 1491.0
68.567085247 1515.0
68.572009103 1403.0
68.576932959 1394.0
68.581856815 1344.0
68.586780671 1282.0
68.591704527 1246.0
68.596628383 1213.0
68.601552239 1180.0
68.606476095 1157.0
68.611399951 1167.0
68.616323807 1087.0
68.621247663 998.0
68.626171519 1072.0
68.631095375 1028.0
68.636019231 993.0
68.640943087 987.0
68.645866943 944.0
68.650790799 969.0
68.655714655 979.0
68.660638511 916.0
68.665562367 792.0
68.670486223 795.0
68.675410079 852.0
68.680333935 825.0
68.685257791 794.0
68.690181647 776.0
68.695105503 732.0
68.700029359 727.0
68.704953215 739.0
68.709877071 778.0
68.714800927 725.0
68.719724783 781.0
68.724648639 733.0
68.729572495 702.0
68.734496351 694.0
68.739420207 652.0
68.744344063 666.0
68.749267919 623.0
68.754191775 648.0
68.759115631 664.0
68.764039487 651.0
68.768963343 587.0
68.773887199 610.0
68.778811055 595.0
68.783734911 585.0
68.788658767 595.0
68.793582623 551.0
68.798506479 561.0
68.803430335 558.0
68.808354191 508.0
68.813278047 569.0
68.818201903 507.0
68.823125759 526.0
68.828049615 531.0
68.832973471 475.0
68.837897327 505.0
68.842821183 498.0
68.847745039 487.0
68.852668895 460.0
68.857592751 431.0
68.862516607 444.0
68.867440463 471.0
68.872364319 451.0
68.877288175 434.0
68.882212031 415.0
68.887135887 443.0
68.892059744 428.0
68.896983600 408.0
68.901907456 428.0
68.906831312 429.0
68.911755168 397.0
68.916679024 418.0
68.921602880 410.0
68.926526736 396.0
68.931450592 390.0
68.936374448 413.0
68.941298304 416.0
68.946222160 355.0
68.951146016 357.0
68.956069872 358.0
68.960993728 363.0
68.965917584 377.0
68.970841440 325.0
68.975765296 355.0
68.980689152 391.0
68.985613008 375.0
68.990536864 335.0
68.995460720 410.0
69.000384576 362.0
69.005308432 334.0
69.010232288 343.0
69.015156144 323.0
69.020080000 339.0
69.025003856 355.0
69.029927712 344.0
69.034851568 319.0
69.039775424 336.0
69.044699280 318.0
69.049623136 354.0
69.054546992 303.0
69.059470848 339.0
69.064394704 322.0
69.069318560 332.0
69.074242416 352.0
69.079166272 311.0
69.084090128 324.0
69.089013984 320.0
69.093937840 295.0
69.098861696 316.0
69.103785552 315.0
69.108709408 283.0
69.113633264 288.0
69.118557120 282.0
69.123480976 303.0
69.128404832 262.0
69.133328688 291.0
69.138252544 268.0
69.143176400 294.0
69.148100256 282.0
69.153024112 219.0
69.157947968 289.0
69.162871824 286.0
69.167795680 203.0
69.172719536 289.0
69.177643392 267.0
69.182567248 210.0
69.187491104 212.0
69.192414960 266.0
69.197338816 272.0
69.202262672 264.0
69.207186528 215.0
69.212110384 208.0
69.217034240 217.0
69.221958096 260.0
69.226881952 267.0
69.231805808 192.0
69.236729664 196.0
69.241653520 219.0
69.246577376 215.0
69.251501232 210.0
69.256425088 198.0
69.261348945 218.0
69.266272801 216.0
69.271196657 198.0
69.276120513 209.0
69.281044369 180.0
69.285968225 196.0
69.290892081 188.0
69.295815937 167.0
69.300739793 165.0
69.305663649 199.0
69.310587505 203.0
69.315511361 198.0
69.320435217 185.0
69.325359073 193.0
69.330282929 182.0
69.335206785 205.0
69.340130641 185.0
69.345054497 173.0
69.349978353 150.0
69.354902209 169.0
69.359826065 183.0
69.364749921 166.0
69.369673777 194.0
69.374597633 180.0
69.379521489 167.0
69.384445345 161.0
69.389369201 169.0
69.394293057 171.0
69.399216913 162.0
69.404140769 166.0
69.409064625 171.0
69.413988481 164.0
69.418912337 169.0
69.423836193 142.0
69.428760049 155.0
69.433683905 152.0
69.438607761 172.0
69.443531617 173.0
69.448455473 169.0
69.453379329 154.0
69.458303185 148.0
69.463227041 140.0
69.468150897 155.0
69.473074753 153.0
69.477998609 165.0
69.482922465 169.0
69.487846321 162.0
69.492770177 160.0
69.497694033 149.0
69.502617889 131.0
69.507541745 162.0
69.512465601 140.0
69.517389457 164.0
69.522313313 149.0
69.527237169 146.0
69.532161025 145.0
69.537084881 154.0
69.542008737 157.0
69.546932593 140.0
69.551856449 141.0
69.556780305 134.0
69.561704161 135.0
69.566628017 136.0
69.571551873 126.0
69.576475729 140.0
69.581399585 130.0
69.586323441 124.0
69.591247297 133.0
69.596171153 134.0
69.601095009 139.0
69.606018865 134.0
69.610942721 136.0
69.615866577 148.0
69.620790433 109.0
69.625714289 114.0
69.630638146 143.0
69.635562002 118.0
69.640485858 135.0
69.645409714 131.0
69.650333570 137.0
69.655257426 125.0
69.660181282 129.0
69.665105138 119.0
69.670028994 116.0
69.674952850 131.0
69.679876706 139.0
69.684800562 135.0
69.689724418 136.0
69.694648274 121.0
69.699572130 123.0
69.704495986 138.0
69.709419842 144.0
69.714343698 119.0
69.719267554 113.0
69.724191410 126.0
69.729115266 132.0
69.734039122 120.0
69.738962978 138.0
69.743886834 127.0
69.748810690 132.0
69.753734546 116.0
69.758658402 116.0
69.763582258 113.0
69.768506114 102.0
69.773429970 112.0
69.778353826 135.0
69.783277682 113.0
69.788201538 131.0
69.793125394 117.0
69.798049250 107.0
69.802973106 120.0
69.807896962 118.0
69.812820818 104.0
69.817744674 94.0
69.822668530 114.0
69.827592386 117.0
69.832516242 112.0
69.837440098 96.0
69.842363954 109.0
69.847287810 109.0
69.852211666 137.0
69.857135522 126.0
69.862059378 97.0
69.866983234 122.0
69.871907090 122.0
69.876830946 105.0
69.881754802 122.0
69.886678658 122.0
69.891602514 116.0
69.896526370 126.0
69.901450226 94.0
69.906374082 105.0
69.911297938 110.0
69.916221794 109.0
69.921145650 115.0
69.926069506 134.0
69.930993362 100.0
69.935917218 117.0
69.940841074 104.0
69.945764930 86.0
69.950688786 104.0
69.955612642 108.0
69.960536498 112.0
69.965460354 120.0
69.970384210 112.0
69.975308066 118.0
69.980231922 114.0
69.985155778 103.0
69.990079634 105.0
69.995003490 96.0
69.999927347 97.0
70.004851203 98.0
70.009775059 121.0
70.014698915 111.0
70.019622771 100.0
70.024546627 96.0
70.029470483 104.0
70.034394339 93.0
70.039318195 94.0
70.044242051 92.0
70.049165907 107.0
70.054089763 89.0
70.059013619 88.0
70.063937475 103.0
70.068861331 114.0
70.073785187 95.0
70.078709043 92.0
70.083632899 105.0
70.088556755 104.0
70.093480611 91.0
70.098404467 94.0
70.103328323 104.0
70.108252179 114.0
70.113176035 122.0
70.118099891 82.0
70.123023747 92.0
70.127947603 115.0
70.132871459 101.0
70.137795315 97.0
70.142719171 97.0
70.147643027 90.0
70.152566883 97.0
70.157490739 85.0
70.162414595 92.0
70.167338451 103.0
70.172262307 80.0
70.177186163 93.0
70.182110019 79.0
70.187033875 91.0
70.191957731 100.0
70.196881587 110.0
70.201805443 88.0
70.206729299 102.0
70.211653155 100.0
70.216577011 84.0
70.221500867 87.0
70.226424723 86.0
70.231348579 105.0
70.236272435 91.0
70.241196291 80.0
70.246120147 78.0
70.251044003 98.0
70.255967859 98.0
70.260891715 82.0
70.265815571 94.0
70.270739427 80.0
70.275663283 93.0
70.280587139 79.0
70.285510995 98.0
70.290434851 87.0
70.295358707 105.0
70.300282563 99.0
70.305206419 112.0
70.310130275 96.0
70.315054131 106.0
70.319977987 78.0
70.324901843 93.0
70.329825699 106.0
70.334749555 96.0
70.339673411 80.0
70.344597267 75.0
70.349521123 81.0
70.354444979 95.0
70.359368835 89.0
70.364292691 98.0
70.369216548 96.0
70.374140404 90.0
70.379064260 91.0
70.383988116 85.0
70.388911972 90.0
70.393835828 89.0
70.398759684 104.0
70.403683540 86.0
70.408607396 85.0
70.413531252 104.0
70.418455108 74.0
70.423378964 90.0
70.428302820 102.0
70.433226676 78.0
70.438150532 88.0
70.443074388 110.0
70.447998244 87.0
70.452922100 100.0
70.457845956 95.0
70.462769812 83.0
70.467693668 96.0
70.472617524 82.0
70.477541380 109.0
70.482465236 72.0
70.487389092 86.0
70.492312948 85.0
70.497236804 97.0
70.502160660 85.0
70.507084516 82.0
70.512008372 80.0
70.516932228 97.0
70.521856084 104.0
70.526779940 98.0
70.531703796 79.0
70.536627652 90.0
70.541551508 88.0
70.546475364 100.0
70.551399220 105.0
70.556323076 77.0
70.561246932 84.0
70.566170788 96.0
70.571094644 87.0
70.576018500 101.0
70.580942356 82.0
70.585866212 81.0
70.590790068 84.0
70.595713924 83.0
70.600637780 85.0
70.605561636 99.0
70.610485492 78.0
70.615409348 83.0
70.620333204 86.0
70.625257060 100.0
70.630180916 83.0
70.635104772 91.0
70.640028628 78.0
70.644952484 97.0
70.649876340 69.0
70.654800196 77.0
70.659724052 80.0
70.664647908 80.0
70.669571764 106.0
70.674495620 88.0
70.679419476 87.0
70.684343332 84.0
70.689267188 82.0
70.694191044 81.0
70.699114900 83.0
70.704038756 77.0
70.708962612 80.0
70.713886468 65.0
70.718810324 75.0
70.723734180 75.0
70.728658036 110.0
70.733581892 97.0
70.738505748 79.0
70.743429605 83.0
70.748353461 87.0
70.753277317 87.0
70.758201173 94.0
70.763125029 93.0
70.768048885 89.0
70.772972741 76.0
70.777896597 95.0
70.782820453 89.0
70.787744309 73.0
70.792668165 80.0
70.797592021 84.0
70.802515877 86.0
70.807439733 103.0
70.812363589 80.0
70.817287445 84.0
70.822211301 80.0
70.827135157 63.0
70.832059013 84.0
70.836982869 88.0
70.841906725 88.0
70.846830581 92.0
70.851754437 86.0
70.856678293 81.0
70.861602149 76.0
70.866526005 79.0
70.871449861 84.0
70.876373717 81.0
70.881297573 64.0
70.886221429 75.0
70.891145285 88.0
70.896069141 81.0
70.900992997 74.0
70.905916853 99.0
70.910840709 102.0
70.915764565 78.0
70.920688421 89.0
70.925612277 90.0
70.930536133 88.0
70.935459989 69.0
70.940383845 90.0
70.945307701 101.0
70.950231557 88.0
70.955155413 90.0
70.960079269 101.0
70.965003125 89.0
70.969926981 78.0
70.974850837 70.0
70.979774693 84.0
70.984698549 71.0
70.989622405 91.0
70.994546261 82.0
70.999470117 93.0
71.004393973 80.0
71.009317829 92.0
71.014241685 73.0
71.019165541 65.0
71.024089397 88.0
71.029013253 82.0
71.033937109 79.0
71.038860965 79.0
71.043784821 82.0
71.048708677 82.0
71.053632533 77.0
71.058556389 84.0
71.063480245 96.0
71.068404101 79.0
71.073327957 87.0
71.078251813 82.0
71.083175669 79.0
71.088099525 82.0
71.093023381 91.0
71.097947237 67.0
71.102871093 91.0
71.107794949 87.0
71.112718806 78.0
71.117642662 83.0
71.122566518 83.0
71.127490374 78.0
71.132414230 67.0
71.137338086 77.0
71.142261942 86.0
71.147185798 87.0
71.152109654 79.0
71.157033510 68.0
71.161957366 74.0
71.166881222 95.0
71.171805078 71.0
71.176728934 88.0
71.181652790 76.0
71.186576646 64.0
71.191500502 89.0
71.196424358 78.0
71.201348214 55.0
71.206272070 72.0
71.211195926 71.0
71.216119782 76.0
71.221043638 80.0
71.225967494 102.0
71.230891350 106.0
71.235815206 63.0
71.240739062 106.0
71.245662918 89.0
71.250586774 86.0
71.255510630 78.0
71.260434486 81.0
71.265358342 78.0
71.270282198 91.0
71.275206054 80.0
71.280129910 76.0
71.285053766 81.0
71.289977622 91.0
71.294901478 75.0
71.299825334 77.0
71.304749190 80.0
71.309673046 75.0
71.314596902 78.0
71.319520758 68.0
71.324444614 77.0
71.329368470 74.0
71.334292326 75.0
71.339216182 86.0
71.344140038 88.0
71.349063894 86.0
71.353987750 92.0
71.358911606 71.0
71.363835462 87.0
71.368759318 79.0
71.373683174 74.0
71.378607030 90.0
71.383530886 75.0
71.388454742 86.0
71.393378598 83.0
71.398302454 83.0
71.403226310 70.0
71.408150166 71.0
71.413074022 72.0
71.417997878 73.0
71.422921734 70.0
71.427845590 81.0
71.432769446 91.0
71.437693302 83.0
71.442617158 92.0
71.447541014 84.0
71.452464870 74.0
71.457388726 75.0
71.462312582 88.0
71.467236438 90.0
71.472160294 79.0
71.477084150 89.0
71.482008007 75.0
71.486931863 69.0
71.491855719 77.0
71.496779575 99.0
71.501703431 79.0
71.506627287 62.0
71.511551143 82.0
71.516474999 85.0
71.521398855 70.0
71.526322711 68.0
71.531246567 75.0
71.536170423 84.0
71.541094279 75.0
71.546018135 62.0
71.550941991 75.0
71.555865847 63.0
71.560789703 64.0
71.565713559 82.0
71.570637415 76.0
71.575561271 89.0
71.580485127 82.0
71.585408983 73.0
71.590332839 83.0
71.595256695 64.0
71.600180551 95.0
71.605104407 81.0
71.610028263 76.0
71.614952119 90.0
71.619875975 79.0
71.624799831 82.0
71.629723687 76.0
71.634647543 79.0
71.639571399 62.0
71.644495255 78.0
71.649419111 77.0
71.654342967 77.0
71.659266823 85.0
71.664190679 82.0
71.669114535 75.0
71.674038391 82.0
71.678962247 61.0
71.683886103 55.0
71.688809959 61.0
71.693733815 103.0
71.698657671 73.0
71.703581527 72.0
71.708505383 65.0
71.713429239 74.0
71.718353095 91.0
71.723276951 82.0
71.728200807 67.0
71.733124663 82.0
71.738048519 64.0
71.742972375 85.0
71.747896231 83.0
71.752820087 70.0
71.757743943 79.0
71.762667799 87.0
71.767591655 71.0
71.772515511 68.0
71.777439367 73.0
71.782363223 80.0
71.787287079 93.0
71.792210935 66.0
71.797134791 77.0
71.802058647 55.0
71.806982503 62.0
71.811906359 68.0
71.816830215 74.0
71.821754071 60.0
71.826677927 63.0
71.831601783 63.0
71.836525639 74.0
71.841449495 87.0
71.846373351 79.0
71.851297208 74.0
71.856221064 77.0
71.861144920 67.0
71.866068776 62.0
71.870992632 79.0
71.875916488 61.0
71.880840344 95.0
71.885764200 75.0
71.890688056 89.0
71.895611912 77.0
71.900535768 62.0
71.905459624 78.0
71.910383480 71.0
71.915307336 84.0
71.920231192 83.0
71.925155048 68.0
71.930078904 66.0
71.935002760 76.0
71.939926616 58.0
71.944850472 74.0
71.949774328 82.0
71.954698184 87.0
71.959622040 60.0
71.964545896 76.0
71.969469752 89.0
71.974393608 58.0
71.979317464 62.0
71.984241320 76.0
71.989165176 94.0
71.994089032 82.0
71.999012888 84.0
72.003936744 68.0
72.008860600 87.0
72.013784456 63.0
72.018708312 78.0
72.023632168 78.0
72.028556024 85.0
72.033479880 81.0
72.038403736 59.0
72.043327592 87.0
72.048251448 66.0
72.053175304 69.0
72.058099160 76.0
72.063023016 73.0
72.067946872 68.0
72.072870728 85.0
72.077794584 74.0
72.082718440 87.0
72.087642296 71.0
72.092566152 66.0
72.097490008 63.0
72.102413864 78.0
72.107337720 67.0
72.112261576 77.0
72.117185432 74.0
72.122109288 64.0
72.127033144 79.0
72.131957000 84.0
72.136880856 57.0
72.141804712 71.0
72.146728568 68.0
72.151652424 58.0
72.156576280 68.0
72.161500136 75.0
72.166423992 79.0
72.171347848 85.0
72.176271704 77.0
72.181195560 72.0
72.186119416 73.0
72.191043272 78.0
72.195967128 64.0
72.200890984 67.0
72.205814840 73.0
72.210738696 91.0
72.215662552 64.0
72.220586409 76.0
72.225510265 64.0
72.230434121 74.0
72.235357977 70.0
72.240281833 81.0
72.245205689 77.0
72.250129545 60.0
72.255053401 65.0
72.259977257 76.0
72.264901113 79.0
72.269824969 78.0
72.274748825 72.0
72.279672681 78.0
72.284596537 71.0
72.289520393 74.0
72.294444249 87.0
72.299368105 73.0
72.304291961 71.0
72.309215817 67.0
72.314139673 63.0
72.319063529 61.0
72.323987385 70.0
72.328911241 61.0
72.333835097 74.0
72.338758953 85.0
72.343682809 64.0
72.348606665 77.0
72.353530521 67.0
72.358454377 71.0
72.363378233 78.0
72.368302089 79.0
72.373225945 92.0
72.378149801 81.0
72.383073657 71.0
72.387997513 81.0
72.392921369 82.0
72.397845225 67.0
72.402769081 87.0
72.407692937 56.0
72.412616793 82.0
72.417540649 83.0
72.422464505 67.0
72.427388361 72.0
72.432312217 66.0
72.437236073 55.0
72.442159929 75.0
72.447083785 66.0
72.452007641 73.0
72.456931497 97.0
72.461855353 70.0
72.466779209 80.0
72.471703065 82.0
72.476626921 80.0
72.481550777 68.0
72.486474633 69.0
72.491398489 65.0
72.496322345 77.0
72.501246201 85.0
72.506170057 73.0
72.511093913 73.0
72.516017769 92.0
72.520941625 57.0
72.525865481 65.0
72.530789337 61.0
72.535713193 84.0
72.540637049 77.0
72.545560905 74.0
72.550484761 63.0
72.555408617 63.0
72.560332473 74.0
72.565256329 85.0
72.570180185 72.0
72.575104041 78.0
72.580027897 54.0
72.584951753 67.0
72.589875609 83.0
72.594799466 71.0
72.599723322 76.0
72.604647178 92.0
72.609571034 81.0
72.614494890 53.0
72.619418746 67.0
72.624342602 70.0
72.629266458 79.0
72.634190314 70.0
72.639114170 70.0
72.644038026 86.0
72.648961882 59.0
72.653885738 75.0
72.658809594 65.0
72.663733450 75.0
72.668657306 80.0
72.673581162 65.0
72.678505018 63.0
72.683428874 86.0
72.688352730 72.0
72.693276586 77.0
72.698200442 81.0
72.703124298 64.0
72.708048154 82.0
72.712972010 54.0
72.717895866 77.0
72.722819722 67.0
72.727743578 73.0
72.732667434 89.0
72.737591290 88.0
72.742515146 79.0
72.747439002 60.0
72.752362858 82.0
72.757286714 66.0
72.762210570 80.0
72.767134426 72.0
72.772058282 72.0
72.776982138 83.0
72.781905994 57.0
72.786829850 63.0
72.791753706 70.0
72.796677562 74.0
72.801601418 73.0
72.806525274 74.0
72.811449130 77.0
72.816372986 66.0
72.821296842 80.0
72.826220698 52.0
72.831144554 83.0
72.836068410 70.0
72.840992266 71.0
72.845916122 81.0
72.850839978 84.0
72.855763834 67.0
72.860687690 73.0
72.865611546 85.0
72.870535402 82.0
72.875459258 75.0
72.880383114 88.0
72.885306970 94.0
72.890230826 70.0
72.895154682 77.0
72.900078538 75.0
72.905002394 59.0
72.909926250 86.0
72.914850106 60.0
72.919773962 70.0
72.924697818 56.0
72.929621674 78.0
72.934545530 65.0
72.939469386 79.0
72.944393242 54.0
72.949317098 63.0
72.954240954 73.0
72.959164810 69.0
72.964088667 74.0
72.969012523 62.0
72.973936379 63.0
72.978860235 72.0
72.983784091 65.0
72.988707947 59.0
72.993631803 72.0
72.998555659 74.0
73.003479515 68.0
73.008403371 68.0
73.013327227 77.0
73.018251083 84.0
73.023174939 84.0
73.028098795 72.0
73.033022651 70.0
73.037946507 70.0
73.042870363 60.0
73.047794219 69.0
73.052718075 90.0
73.057641931 60.0
73.062565787 65.0
73.067489643 83.0
73.072413499 77.0
73.077337355 68.0
73.082261211 60.0
73.087185067 75.0
73.092108923 72.0
73.097032779 74.0
73.101956635 77.0
73.106880491 76.0
73.111804347 66.0
73.116728203 61.0
73.121652059 67.0
73.126575915 65.0
73.131499771 58.0
73.136423627 63.0
73.141347483 52.0
73.146271339 78.0
73.151195195 56.0
73.156119051 57.0
73.161042907 62.0
73.165966763 70.0
73.170890619 66.0
73.175814475 83.0
73.180738331 76.0
73.185662187 74.0
73.190586043 74.0
73.195509899 62.0
73.200433755 60.0
73.205357611 80.0
73.210281467 62.0
73.215205323 66.0
73.220129179 83.0
73.225053035 70.0
73.229976891 70.0
73.234900747 76.0
73.239824603 54.0
73.244748459 66.0
73.249672315 64.0
73.254596171 71.0
73.259520027 61.0
73.264443883 78.0
73.269367739 66.0
73.274291595 85.0
73.279215451 58.0
73.284139307 65.0
73.289063163 63.0
73.293987019 74.0
73.298910875 67.0
73.303834731 69.0
73.308758587 68.0
73.313682443 71.0
73.318606299 73.0
73.323530155 58.0
73.328454011 80.0
73.333377868 78.0
73.338301724 56.0
73.343225580 72.0
73.348149436 73.0
73.353073292 82.0
73.357997148 84.0
73.362921004 82.0
73.367844860 74.0
73.372768716 66.0
73.377692572 65.0
73.382616428 76.0
73.387540284 79.0
73.392464140 78.0
73.397387996 57.0
73.402311852 86.0
73.407235708 61.0
73.412159564 51.0
73.417083420 74.0
73.422007276 68.0
73.426931132 70.0
73.431854988 65.0
73.436778844 72.0
73.441702700 78.0
73.446626556 57.0
73.451550412 60.0
73.456474268 76.0
73.461398124 74.0
73.466321980 74.0
73.471245836 68.0
73.476169692 68.0
73.481093548 79.0
73.486017404 74.0
73.490941260 83.0
73.495865116 83.0
73.500788972 70.0
73.505712828 74.0
73.510636684 69.0
73.515560540 71.0
73.520484396 80.0
73.525408252 78.0
73.530332108 68.0
73.535255964 71.0
73.540179820 80.0
73.545103676 85.0
73.550027532 65.0
73.554951388 61.0
73.559875244 58.0
73.564799100 75.0
73.569722956 60.0
73.574646812 69.0
73.579570668 71.0
73.584494524 72.0
73.589418380 75.0
73.594342236 63.0
73.599266092 87.0
73.604189948 79.0
73.609113804 71.0
73.614037660 70.0
73.618961516 64.0
73.623885372 84.0
73.628809228 67.0
73.633733084 70.0
73.638656940 71.0
73.643580796 80.0
73.648504652 86.0
73.653428508 68.0
73.658352364 77.0
73.663276220 72.0
73.668200076 65.0
73.673123932 76.0
73.678047788 68.0
73.682971644 70.0
73.687895500 78.0
73.692819356 72.0
73.697743212 72.0
73.702667069 78.0
73.707590925 79.0
73.712514781 91.0
73.717438637 52.0
73.722362493 69.0
73.727286349 56.0
73.732210205 65.0
73.737134061 66.0
73.742057917 80.0
73.746981773 89.0
73.751905629 67.0
73.756829485 63.0
73.761753341 80.0
73.766677197 70.0
73.771601053 67.0
73.776524909 71.0
73.781448765 77.0
73.786372621 64.0
73.791296477 65.0
73.796220333 70.0
73.801144189 85.0
73.806068045 67.0
73.810991901 75.0
73.815915757 55.0
73.820839613 70.0
73.825763469 68.0
73.830687325 62.0
73.835611181 63.0
73.840535037 65.0
73.845458893 66.0
73.850382749 78.0
73.855306605 63.0
73.860230461 75.0
73.865154317 70.0
73.870078173 72.0
73.875002029 70.0
73.879925885 77.0
73.884849741 67.0
73.889773597 67.0
73.894697453 65.0
73.899621309 73.0
73.904545165 58.0
73.909469021 68.0
73.914392877 78.0
73.919316733 66.0
73.924240589 73.0
73.929164445 50.0
73.934088301 74.0
73.939012157 72.0
73.943936013 84.0
73.948859869 70.0
73.953783725 66.0
73.958707581 58.0
73.963631437 69.0
73.968555293 76.0
73.973479149 66.0
73.978403005 70.0
73.983326861 78.0
73.988250717 77.0
73.993174573 67.0
73.998098429 75.0
74.003022285 83.0
74.007946141 66.0
74.012869997 62.0
74.017793853 64.0
74.022717709 75.0
74.027641565 69.0
74.032565421 73.0
74.037489277 70.0
74.042413133 54.0
74.047336989 83.0
74.052260845 78.0
74.057184701 59.0
74.062108557 65.0
74.067032413 79.0
74.071956270 66.0
74.076880126 53.0
74.081803982 81.0
74.086727838 73.0
74.091651694 63.0
74.096575550 67.0
74.101499406 65.0
74.106423262 61.0
74.111347118 73.0
74.116270974 66.0
74.121194830 71.0
74.126118686 61.0
74.131042542 75.0
74.135966398 67.0
74.140890254 75.0
74.145814110 62.0
74.150737966 58.0
74.155661822 69.0
74.160585678 63.0
74.165509534 75.0
74.170433390 68.0
74.175357246 76.0
74.180281102 73.0
74.185204958 74.0
74.190128814 64.0
74.195052670 70.0
74.199976526 64.0
74.204900382 76.0
74.209824238 62.0
74.214748094 72.0
74.219671950 54.0
74.224595806 63.0
74.229519662 70.0
74.234443518 58.0
74.239367374 62.0
74.244291230 61.0
74.249215086 63.0
74.254138942 66.0
74.259062798 79.0
74.263986654 84.0
74.268910510 61.0
74.273834366 86.0
74.278758222 82.0
74.283682078 74.0
74.288605934 78.0
74.293529790 78.0
74.298453646 76.0
74.303377502 69.0
74.308301358 45.0
74.313225214 77.0
74.318149070 75.0
74.323072926 67.0
74.327996782 62.0
74.332920638 67.0
74.337844494 49.0
74.342768350 82.0
74.347692206 62.0
74.352616062 71.0
74.357539918 80.0
74.362463774 71.0
74.367387630 64.0
74.372311486 69.0
74.377235342 72.0
74.382159198 69.0
74.387083054 69.0
74.392006910 75.0
74.396930766 74.0
74.401854622 71.0
74.406778478 72.0
74.411702334 64.0
74.416626190 65.0
74.421550046 79.0
74.426473902 72.0
74.431397758 66.0
74.436321614 71.0
74.441245470 52.0
74.446169327 59.0
74.451093183 69.0
74.456017039 65.0
74.460940895 51.0
74.465864751 72.0
74.470788607 62.0
74.475712463 65.0
74.480636319 72.0
74.485560175 52.0
74.490484031 67.0
74.495407887 55.0
74.500331743 68.0
74.505255599 80.0
74.510179455 88.0
74.515103311 55.0
74.520027167 71.0
74.524951023 85.0
74.529874879 67.0
74.534798735 50.0
74.539722591 79.0
74.544646447 74.0
74.549570303 91.0
74.554494159 67.0
74.559418015 57.0
74.564341871 69.0
74.569265727 64.0
74.574189583 59.0
74.579113439 67.0
74.584037295 67.0
74.588961151 62.0
74.593885007 63.0
74.598808863 77.0
74.603732719 66.0
74.608656575 78.0
74.613580431 71.0
74.618504287 66.0
74.623428143 79.0
74.628351999 63.0
74.633275855 77.0
74.638199711 64.0
74.643123567 93.0
74.648047423 69.0
74.652971279 69.0
74.657895135 81.0
74.662818991 74.0
74.667742847 85.0
74.672666703 82.0
74.677590559 64.0
74.682514415 68.0
74.687438271 73.0
74.692362127 65.0
74.697285983 66.0
74.702209839 64.0
74.707133695 68.0
74.712057551 58.0
74.716981407 68.0
74.721905263 70.0
74.726829119 64.0
74.731752975 67.0
74.736676831 78.0
74.741600687 63.0
74.746524543 66.0
74.751448399 63.0
74.756372255 77.0
74.761296111 60.0
74.766219967 68.0
74.771143823 68.0
74.776067679 65.0
74.780991535 68.0
74.785915391 88.0
74.790839247 53.0
74.795763103 58.0
74.800686959 71.0
74.805610815 59.0
74.810534671 61.0
74.815458528 68.0
74.820382384 68.0
74.825306240 78.0
74.830230096 67.0
74.835153952 71.0
74.840077808 67.0
74.845001664 66.0
74.849925520 61.0
74.854849376 72.0
74.859773232 60.0
74.864697088 77.0
74.869620944 79.0
74.874544800 77.0
74.879468656 71.0
74.884392512 83.0
74.889316368 72.0
74.894240224 55.0
74.899164080 68.0
74.904087936 63.0
74.909011792 65.0
74.913935648 69.0
74.918859504 69.0
74.923783360 71.0
74.928707216 74.0
74.933631072 67.0
74.938554928 69.0
74.943478784 66.0
74.948402640 74.0
74.953326496 52.0
74.958250352 77.0
74.963174208 52.0
74.968098064 71.0
74.973021920 77.0
74.977945776 66.0
74.982869632 62.0
74.987793488 74.0
74.992717344 49.0
74.997641200 70.0
