55.001861930 127.0
55.006785786 136.0
55.011709642 118.0
55.016633498 136.0
55.021557354 127.0
55.026481210 136.0
55.031405066 117.0
55.036328922 118.0
55.041252778 122.0
55.046176634 121.0
55.051100490 132.0
55.056024346 142.0
55.060948202 135.0
55.065872058 134.0
55.070795914 140.0
55.075719770 136.0
55.080643626 141.0
55.085567482 131.0
55.090491338 143.0
55.095415194 129.0
55.100339050 137.0
55.105262906 129.0
55.110186762 156.0
55.115110618 132.0
55.120034474 156.0
55.124958330 131.0
55.129882186 144.0
55.134806042 147.0
55.139729898 117.0
55.144653754 141.0
55.149577610 120.0
55.154501466 130.0
55.159425322 125.0
55.164349178 107.0
55.169273034 148.0
55.174196890 138.0
55.179120746 142.0
55.184044602 132.0
55.188968459 130.0
55.193892315 127.0
55.198816171 141.0
55.203740027 119.0
55.208663883 156.0
55.213587739 143.0
55.218511595 145.0
55.223435451 166.0
55.228359307 149.0
55.233283163 122.0
55.238207019 138.0
55.243130875 147.0
55.248054731 146.0
55.252978587 139.0
55.257902443 145.0
55.262826299 144.0
55.267750155 139.0
55.272674011 139.0
55.277597867 130.0
55.282521723 129.0
55.287445579 144.0
55.292369435 158.0
55.297293291 135.0
55.302217147 133.0
55.307141003 147.0
55.312064859 105.0
55.316988715 126.0
55.321912571 124.0
55.326836427 139.0
55.331760283 128.0
55.336684139 145.0
55.341607995 133.0
55.346531851 150.0
55.351455707 117.0
55.356379563 139.0
55.361303419 140.0
55.366227275 122.0
55.371151131 140.0
55.376074987 123.0
55.380998843 137.0
55.385922699 127.0
55.390846555 146.0
55.395770411 122.0
55.400694267 144.0
55.405618123 137.0
55.410541979 130.0
55.415465835 136.0
55.420389691 121.0
55.425313547 117.0
55.430237403 136.0
55.435161259 124.0
55.440085115 139.0
55.445008971 155.0
55.449932827 131.0
55.454856683 128.0
55.459780539 139.0
55.464704395 139.0
55.469628251 126.0
55.474552107 128.0
55.479475963 154.0
55.484399819 127.0
55.489323675 139.0
55.494247531 139.0
55.499171387 131.0
55.504095243 137.0
55.509019099 129.0
55.513942955 129.0
55.518866811 139.0
55.523790667 133.0
55.528714523 131.0
55.533638379 137.0
55.538562235 123.0
55.543486091 145.0
55.548409947 142.0
55.553333803 136.0
55.558257660 129.0
55.563181516 153.0
55.568105372 135.0
55.573029228 134.0
55.577953084 134.0
55.582876940 140.0
55.587800796 126.0
55.592724652 142.0
55.597648508 113.0
55.602572364 119.0
55.607496220 133.0
55.612420076 141.0
55.617343932 123.0
55.622267788 131.0
55.627191644 142.0
55.632115500 120.0
55.637039356 132.0
55.641963212 132.0
55.646887068 137.0
55.651810924 119.0
55.656734780 126.0
55.661658636 134.0
55.666582492 148.0
55.671506348 134.0
55.676430204 140.0
55.681354060 141.0
55.686277916 147.0
55.691201772 132.0
55.696125628 143.0
55.701049484 154.0
55.705973340 145.0
55.710897196 126.0
55.715821052 143.0
55.720744908 126.0
55.725668764 138.0
55.730592620 137.0
55.735516476 138.0
55.740440332 144.0
55.745364188 132.0
55.750288044 143.0
55.755211900 112.0
55.760135756 130.0
55.765059612 128.0
55.769983468 136.0
55.774907324 127.0
55.779831180 121.0
55.784755036 133.0
55.789678892 150.0
55.794602748 123.0
55.799526604 136.0
55.804450460 133.0
55.809374316 131.0
55.814298172 143.0
55.819222028 116.0
55.824145884 149.0
55.829069740 136.0
55.833993596 127.0
55.838917452 151.0
55.843841308 113.0
55.848765164 158.0
55.853689020 122.0
55.858612876 129.0
55.863536732 121.0
55.868460588 132.0
55.873384444 135.0
55.878308300 119.0
55.883232156 134.0
55.888156012 153.0
55.893079868 138.0
55.898003724 117.0
55.902927580 152.0
55.907851436 131.0
55.912775292 137.0
55.917699148 124.0
55.922623004 116.0
55.927546860 123.0
55.932470717 143.0
55.937394573 130.0
55.942318429 126.0
55.947242285 144.0
55.952166141 122.0
55.957089997 153.0
55.962013853 126.0
55.966937709 144.0
55.971861565 129.0
55.976785421 144.0
55.981709277 131.0
55.986633133 146.0
55.991556989 116.0
55.996480845 112.0
56.001404701 124.0
56.006328557 152.0
56.011252413 135.0
56.016176269 133.0
56.021100125 119.0
56.026023981 127.0
56.030947837 140.0
56.035871693 143.0
56.040795549 135.0
56.045719405 127.0
56.050643261 129.0
56.055567117 139.0
56.060490973 118.0
56.065414829 147.0
56.070338685 131.0
56.075262541 156.0
56.080186397 140.0
56.085110253 164.0
56.090034109 126.0
56.094957965 132.0
56.099881821 136.0
56.104805677 139.0
56.109729533 157.0
56.114653389 145.0
56.119577245 133.0
56.124501101 133.0
56.129424957 134.0
56.134348813 133.0
56.139272669 131.0
56.144196525 131.0
56.149120381 121.0
56.154044237 135.0
56.158968093 145.0
56.163891949 124.0
56.168815805 130.0
56.173739661 142.0
56.178663517 130.0
56.183587373 121.0
56.188511229 143.0
56.193435085 143.0
56.198358941 122.0
56.203282797 120.0
56.208206653 120.0
56.213130509 152.0
56.218054365 135.0
56.222978221 136.0
56.227902077 123.0
56.232825933 140.0
56.237749789 124.0
56.242673645 116.0
56.247597501 123.0
56.252521357 120.0
56.257445213 120.0
56.262369069 144.0
56.267292925 144.0
56.272216781 119.0
56.277140637 157.0
56.282064493 131.0
56.286988349 123.0
56.291912205 132.0
56.296836061 135.0
56.301759918 120.0
56.306683774 119.0
56.311607630 125.0
56.316531486 133.0
56.321455342 119.0
56.326379198 124.0
56.331303054 125.0
56.336226910 134.0
56.341150766 145.0
56.346074622 136.0
56.350998478 139.0
56.355922334 124.0
56.360846190 145.0
56.365770046 129.0
56.370693902 135.0
56.375617758 138.0
56.380541614 135.0
56.385465470 133.0
56.390389326 129.0
56.395313182 157.0
56.400237038 118.0
56.405160894 118.0
56.410084750 143.0
56.415008606 127.0
56.419932462 118.0
56.424856318 141.0
56.429780174 145.0
56.434704030 112.0
56.439627886 148.0
56.444551742 117.0
56.449475598 137.0
56.454399454 129.0
56.459323310 122.0
56.464247166 118.0
56.469171022 121.0
56.474094878 138.0
56.479018734 127.0
56.483942590 146.0
56.488866446 143.0
56.493790302 135.0
56.498714158 122.0
56.503638014 136.0
56.508561870 138.0
56.513485726 141.0
56.518409582 157.0
56.523333438 144.0
56.528257294 134.0
56.533181150 108.0
56.538105006 124.0
56.543028862 139.0
56.547952718 146.0
56.552876574 144.0
56.557800430 138.0
56.562724286 157.0
56.567648142 138.0
56.572571998 120.0
56.577495854 139.0
56.582419710 133.0
56.587343566 136.0
56.592267422 162.0
56.597191278 95.0
56.602115134 120.0
56.607038990 118.0
56.611962846 131.0
56.616886702 122.0
56.621810558 136.0
56.626734414 141.0
56.631658270 116.0
56.636582126 128.0
56.641505982 125.0
56.646429838 133.0
56.651353694 141.0
56.656277550 146.0
56.661201406 128.0
56.666125262 128.0
56.671049119 139.0
56.675972975 123.0
56.680896831 133.0
56.685820687 132.0
56.690744543 132.0
56.695668399 147.0
56.700592255 133.0
56.705516111 161.0
56.710439967 131.0
56.715363823 141.0
56.720287679 134.0
56.725211535 159.0
56.730135391 140.0
56.735059247 137.0
56.739983103 134.0
56.744906959 158.0
56.749830815 128.0
56.754754671 129.0
56.759678527 158.0
56.764602383 141.0
56.769526239 102.0
56.774450095 141.0
56.779373951 136.0
56.784297807 148.0
56.789221663 129.0
56.794145519 141.0
56.799069375 148.0
56.803993231 145.0
56.808917087 128.0
56.813840943 116.0
56.818764799 121.0
56.823688655 128.0
56.828612511 123.0
56.833536367 128.0
56.838460223 130.0
56.843384079 111.0
56.848307935 122.0
56.853231791 139.0
56.858155647 116.0
56.863079503 155.0
56.868003359 121.0
56.872927215 138.0
56.877851071 146.0
56.882774927 143.0
56.887698783 140.0
56.892622639 123.0
56.897546495 128.0
56.902470351 126.0
56.907394207 130.0
56.912318063 139.0
56.917241919 138.0
56.922165775 139.0
56.927089631 127.0
56.932013487 124.0
56.936937343 122.0
56.941861199 136.0
56.946785055 116.0
56.951708911 130.0
56.956632767 140.0
56.961556623 128.0
56.966480479 126.0
56.971404335 142.0
56.976328191 132.0
56.981252047 128.0
56.986175903 117.0
56.991099759 153.0
56.996023615 141.0
57.000947471 140.0
57.005871327 121.0
57.010795183 138.0
57.015719039 148.0
57.020642895 135.0
57.025566751 128.0
57.030490607 123.0
57.035414463 121.0
57.040338320 117.0
57.045262176 130.0
57.050186032 138.0
57.055109888 130.0
57.060033744 117.0
57.064957600 140.0
57.069881456 142.0
57.074805312 122.0
57.079729168 144.0
57.084653024 130.0
57.089576880 111.0
57.094500736 113.0
57.099424592 129.0
57.104348448 146.0
57.109272304 130.0
57.114196160 128.0
57.119120016 143.0
57.124043872 167.0
57.128967728 117.0
57.133891584 143.0
57.138815440 129.0
57.143739296 122.0
57.148663152 139.0
57.153587008 147.0
57.158510864 135.0
57.163434720 137.0
57.168358576 135.0
57.173282432 128.0
57.178206288 138.0
57.183130144 141.0
57.188054000 127.0
57.192977856 143.0
57.197901712 135.0
57.202825568 129.0
57.207749424 114.0
57.212673280 136.0
57.217597136 147.0
57.222520992 136.0
57.227444848 129.0
57.232368704 125.0
57.237292560 122.0
57.242216416 146.0
57.247140272 128.0
57.252064128 165.0
57.256987984 144.0
57.261911840 128.0
57.266835696 124.0
57.271759552 128.0
57.276683408 146.0
57.281607264 138.0
57.286531120 151.0
57.291454976 135.0
57.296378832 139.0
57.301302688 135.0
57.306226544 119.0
57.311150400 135.0
57.316074256 141.0
57.320998112 113.0
57.325921968 161.0
57.330845824 147.0
57.335769680 152.0
57.340693536 136.0
57.345617392 167.0
57.350541248 133.0
57.355465104 127.0
57.360388960 120.0
57.365312816 122.0
57.370236672 113.0
57.375160528 123.0
57.380084384 154.0
57.385008240 134.0
57.389932096 145.0
57.394855952 148.0
57.399779808 133.0
57.404703664 133.0
57.409627521 117.0
57.414551377 135.0
57.419475233 139.0
57.424399089 138.0
57.429322945 143.0
57.434246801 134.0
57.439170657 138.0
57.444094513 155.0
57.449018369 134.0
57.453942225 119.0
57.458866081 138.0
57.463789937 145.0
57.468713793 143.0
57.473637649 128.0
57.478561505 148.0
57.483485361 147.0
57.488409217 126.0
57.493333073 120.0
57.498256929 110.0
57.503180785 156.0
57.508104641 146.0
57.513028497 157.0
57.517952353 154.0
57.522876209 148.0
57.527800065 127.0
57.532723921 138.0
57.537647777 123.0
57.542571633 138.0
57.547495489 143.0
57.552419345 130.0
57.557343201 141.0
57.562267057 137.0
57.567190913 132.0
57.572114769 131.0
57.577038625 136.0
57.581962481 130.0
57.586886337 150.0
57.591810193 129.0
57.596734049 124.0
57.601657905 139.0
57.606581761 139.0
57.611505617 132.0
57.616429473 142.0
57.621353329 128.0
57.626277185 136.0
57.631201041 130.0
57.636124897 127.0
57.641048753 149.0
57.645972609 149.0
57.650896465 124.0
57.655820321 132.0
57.660744177 135.0
57.665668033 119.0
57.670591889 144.0
57.675515745 126.0
57.680439601 142.0
57.685363457 143.0
57.690287313 137.0
57.695211169 148.0
57.700135025 129.0
57.705058881 173.0
57.709982737 128.0
57.714906593 139.0
57.719830449 154.0
57.724754305 127.0
57.729678161 142.0
57.734602017 134.0
57.739525873 159.0
57.744449729 136.0
57.749373585 140.0
57.754297441 134.0
57.759221297 116.0
57.764145153 151.0
57.769069009 166.0
57.773992865 123.0
57.778916721 128.0
57.783840578 155.0
57.788764434 141.0
57.793688290 127.0
57.798612146 161.0
57.803536002 122.0
57.808459858 153.0
57.813383714 153.0
57.818307570 132.0
57.823231426 136.0
57.828155282 142.0
57.833079138 128.0
57.838002994 125.0
57.842926850 142.0
57.847850706 154.0
57.852774562 129.0
57.857698418 134.0
57.862622274 152.0
57.867546130 147.0
57.872469986 149.0
57.877393842 144.0
57.882317698 136.0
57.887241554 167.0
57.892165410 144.0
57.897089266 139.0
57.902013122 157.0
57.906936978 132.0
57.911860834 142.0
57.916784690 137.0
57.921708546 141.0
57.926632402 135.0
57.931556258 138.0
57.936480114 157.0
57.941403970 144.0
57.946327826 145.0
57.951251682 129.0
57.956175538 134.0
57.961099394 160.0
57.966023250 131.0
57.970947106 140.0
57.975870962 131.0
57.980794818 134.0
57.985718674 157.0
57.990642530 130.0
57.995566386 150.0
58.000490242 133.0
58.005414098 120.0
58.010337954 129.0
58.015261810 114.0
58.020185666 133.0
58.025109522 130.0
58.030033378 132.0
58.034957234 149.0
58.039881090 152.0
58.044804946 150.0
58.049728802 115.0
58.054652658 141.0
58.059576514 154.0
58.064500370 140.0
58.069424226 138.0
58.074348082 129.0
58.079271938 151.0
58.084195794 152.0
58.089119650 142.0
58.094043506 158.0
58.098967362 120.0
58.103891218 155.0
58.108815074 132.0
58.113738930 143.0
58.118662786 142.0
58.123586642 144.0
58.128510498 140.0
58.133434354 141.0
58.138358210 143.0
58.143282066 127.0
58.148205922 115.0
58.153129779 162.0
58.158053635 138.0
58.162977491 128.0
58.167901347 153.0
58.172825203 125.0
58.177749059 125.0
58.182672915 152.0
58.187596771 129.0
58.192520627 142.0
58.197444483 119.0
58.202368339 146.0
58.207292195 129.0
58.212216051 142.0
58.217139907 152.0
58.222063763 122.0
58.226987619 126.0
58.231911475 136.0
58.236835331 137.0
58.241759187 145.0
58.246683043 157.0
58.251606899 141.0
58.256530755 145.0
58.261454611 135.0
58.266378467 141.0
58.271302323 133.0
58.276226179 159.0
58.281150035 122.0
58.286073891 131.0
58.290997747 139.0
58.295921603 137.0
58.300845459 124.0
58.305769315 148.0
58.310693171 118.0
58.315617027 113.0
58.320540883 102.0
58.325464739 143.0
58.330388595 124.0
58.335312451 122.0
58.340236307 140.0
58.345160163 121.0
58.350084019 130.0
58.355007875 121.0
58.359931731 124.0
58.364855587 125.0
58.369779443 129.0
58.374703299 145.0
58.379627155 135.0
58.384551011 136.0
58.389474867 164.0
58.394398723 139.0
58.399322579 124.0
58.404246435 139.0
58.409170291 128.0
58.414094147 117.0
58.419018003 115.0
58.423941859 130.0
58.428865715 121.0
58.433789571 126.0
58.438713427 151.0
58.443637283 153.0
58.448561139 144.0
58.453484995 119.0
58.458408851 138.0
58.463332707 136.0
58.468256563 152.0
58.473180419 136.0
58.478104275 155.0
58.483028131 136.0
58.487951987 147.0
58.492875843 140.0
58.497799699 153.0
58.502723555 149.0
58.507647411 151.0
58.512571267 140.0
58.517495123 124.0
58.522418980 158.0
58.527342836 136.0
58.532266692 131.0
58.537190548 145.0
58.542114404 138.0
58.547038260 142.0
58.551962116 145.0
58.556885972 131.0
58.561809828 133.0
58.566733684 131.0
58.571657540 128.0
58.576581396 144.0
58.581505252 130.0
58.586429108 137.0
58.591352964 123.0
58.596276820 140.0
58.601200676 137.0
58.606124532 135.0
58.611048388 126.0
58.615972244 143.0
58.620896100 117.0
58.625819956 149.0
58.630743812 125.0
58.635667668 140.0
58.640591524 149.0
58.645515380 141.0
58.650439236 131.0
58.655363092 135.0
58.660286948 134.0
58.665210804 138.0
58.670134660 128.0
58.675058516 128.0
58.679982372 133.0
58.684906228 136.0
58.689830084 129.0
58.694753940 124.0
58.699677796 137.0
58.704601652 121.0
58.709525508 119.0
58.714449364 128.0
58.719373220 126.0
58.724297076 150.0
58.729220932 144.0
58.734144788 149.0
58.739068644 125.0
58.743992500 99.0
58.748916356 153.0
58.753840212 139.0
58.758764068 128.0
58.763687924 127.0
58.768611780 114.0
58.773535636 135.0
58.778459492 145.0
58.783383348 139.0
58.788307204 164.0
58.793231060 134.0
58.798154916 126.0
58.803078772 123.0
58.808002628 122.0
58.812926484 134.0
58.817850340 110.0
58.822774196 140.0
58.827698052 142.0
58.832621908 146.0
58.837545764 156.0
58.842469620 152.0
58.847393476 132.0
58.852317332 147.0
58.857241188 119.0
58.862165044 111.0
58.867088900 133.0
58.872012756 131.0
58.876936612 135.0
58.881860468 150.0
58.886784324 137.0
58.891708181 142.0
58.896632037 160.0
58.901555893 133.0
58.906479749 147.0
58.911403605 135.0
58.916327461 114.0
58.921251317 157.0
58.926175173 133.0
58.931099029 130.0
58.936022885 110.0
58.940946741 139.0
58.945870597 131.0
58.950794453 138.0
58.955718309 155.0
58.960642165 146.0
58.965566021 140.0
58.970489877 134.0
58.975413733 156.0
58.980337589 135.0
58.985261445 157.0
58.990185301 139.0
58.995109157 128.0
59.000033013 126.0
59.004956869 141.0
59.009880725 134.0
59.014804581 154.0
59.019728437 119.0
59.024652293 162.0
59.029576149 125.0
59.034500005 122.0
59.039423861 140.0
59.044347717 152.0
59.049271573 147.0
59.054195429 127.0
59.059119285 145.0
59.064043141 146.0
59.068966997 130.0
59.073890853 120.0
59.078814709 129.0
59.083738565 153.0
59.088662421 135.0
59.093586277 142.0
59.098510133 144.0
59.103433989 150.0
59.108357845 166.0
59.113281701 160.0
59.118205557 136.0
59.123129413 136.0
59.128053269 119.0
59.132977125 127.0
59.137900981 136.0
59.142824837 143.0
59.147748693 126.0
59.152672549 118.0
59.157596405 132.0
59.162520261 138.0
59.167444117 134.0
59.172367973 150.0
59.177291829 152.0
59.182215685 135.0
59.187139541 155.0
59.192063397 118.0
59.196987253 138.0
59.201911109 122.0
59.206834965 167.0
59.211758821 135.0
59.216682677 147.0
59.221606533 130.0
59.226530389 112.0
59.231454245 124.0
59.236378101 136.0
59.241301957 132.0
59.246225813 150.0
59.251149669 153.0
59.256073525 133.0
59.260997382 157.0
59.265921238 134.0
59.270845094 141.0
59.275768950 120.0
59.280692806 117.0
59.285616662 145.0
59.290540518 132.0
59.295464374 130.0
59.300388230 122.0
59.305312086 124.0
59.310235942 116.0
59.315159798 144.0
59.320083654 141.0
59.325007510 122.0
59.329931366 140.0
59.334855222 131.0
59.339779078 148.0
59.344702934 135.0
59.349626790 142.0
59.354550646 141.0
59.359474502 135.0
59.364398358 127.0
59.369322214 133.0
59.374246070 135.0
59.379169926 129.0
59.384093782 133.0
59.389017638 129.0
59.393941494 140.0
59.398865350 141.0
59.403789206 142.0
59.408713062 127.0
59.413636918 124.0
59.418560774 150.0
59.423484630 133.0
59.428408486 148.0
59.433332342 133.0
59.438256198 125.0
59.443180054 137.0
59.448103910 122.0
59.453027766 137.0
59.457951622 157.0
59.462875478 133.0
59.467799334 142.0
59.472723190 154.0
59.477647046 152.0
59.482570902 138.0
59.487494758 133.0
59.492418614 127.0
59.497342470 141.0
59.502266326 135.0
59.507190182 136.0
59.512114038 149.0
59.517037894 148.0
59.521961750 125.0
59.526885606 140.0
59.531809462 136.0
59.536733318 145.0
59.541657174 150.0
59.546581030 158.0
59.551504886 133.0
59.556428742 137.0
59.561352598 150.0
59.566276454 138.0
59.571200310 130.0
59.576124166 121.0
59.581048022 153.0
59.585971878 136.0
59.590895734 127.0
59.595819590 153.0
59.600743446 155.0
59.605667302 174.0
59.610591158 148.0
59.615515014 158.0
59.620438870 140.0
59.625362726 143.0
59.630286582 123.0
59.635210439 147.0
59.640134295 143.0
59.645058151 135.0
59.649982007 153.0
59.654905863 136.0
59.659829719 124.0
59.664753575 140.0
59.669677431 139.0
59.674601287 153.0
59.679525143 132.0
59.684448999 124.0
59.689372855 141.0
59.694296711 133.0
59.699220567 143.0
59.704144423 156.0
59.709068279 139.0
59.713992135 140.0
59.718915991 146.0
59.723839847 163.0
59.728763703 132.0
59.733687559 127.0
59.738611415 144.0
59.743535271 137.0
59.748459127 133.0
59.753382983 139.0
59.758306839 127.0
59.763230695 120.0
59.768154551 155.0
59.773078407 143.0
59.778002263 131.0
59.782926119 139.0
59.787849975 137.0
59.792773831 138.0
59.797697687 136.0
59.802621543 138.0
59.807545399 134.0
59.812469255 127.0
59.817393111 136.0
59.822316967 128.0
59.827240823 141.0
59.832164679 150.0
59.837088535 117.0
59.842012391 158.0
59.846936247 118.0
59.851860103 143.0
59.856783959 146.0
59.861707815 148.0
59.866631671 132.0
59.871555527 125.0
59.876479383 146.0
59.881403239 123.0
59.886327095 134.0
59.891250951 122.0
59.896174807 149.0
59.901098663 155.0
59.906022519 165.0
59.910946375 127.0
59.915870231 126.0
59.920794087 155.0
59.925717943 147.0
59.930641799 154.0
59.935565655 135.0
59.940489511 118.0
59.945413367 135.0
59.950337223 135.0
59.955261079 127.0
59.960184935 143.0
59.965108791 148.0
59.970032647 152.0
59.974956503 131.0
59.979880359 140.0
59.984804215 133.0
59.989728071 146.0
59.994651927 125.0
59.999575783 136.0
60.004499640 144.0
60.009423496 135.0
60.014347352 140.0
60.019271208 128.0
60.024195064 138.0
60.029118920 112.0
60.034042776 132.0
60.038966632 142.0
60.043890488 129.0
60.048814344 146.0
60.053738200 133.0
60.058662056 141.0
60.063585912 157.0
60.068509768 149.0
60.073433624 136.0
60.078357480 137.0
60.083281336 131.0
60.088205192 114.0
60.093129048 124.0
60.098052904 127.0
60.102976760 137.0
60.107900616 154.0
60.112824472 145.0
60.117748328 162.0
60.122672184 122.0
60.127596040 123.0
60.132519896 150.0
60.137443752 141.0
60.142367608 141.0
60.147291464 158.0
60.152215320 137.0
60.157139176 166.0
60.162063032 139.0
60.166986888 147.0
60.171910744 154.0
60.176834600 157.0
60.181758456 112.0
60.186682312 118.0
60.191606168 166.0
60.196530024 137.0
60.201453880 135.0
60.206377736 155.0
60.211301592 132.0
60.216225448 129.0
60.221149304 136.0
60.226073160 154.0
60.230997016 125.0
60.235920872 122.0
60.240844728 126.0
60.245768584 162.0
60.250692440 126.0
60.255616296 143.0
60.260540152 172.0
60.265464008 134.0
60.270387864 137.0
60.275311720 169.0
60.280235576 165.0
60.285159432 144.0
60.290083288 172.0
60.295007144 166.0
60.299931000 137.0
60.304854856 141.0
60.309778712 171.0
60.314702568 154.0
60.319626424 146.0
60.324550280 153.0
60.329474136 168.0
60.334397992 144.0
60.339321848 168.0
60.344245704 157.0
60.349169560 158.0
60.354093416 147.0
60.359017272 139.0
60.363941128 172.0
60.368864984 129.0
60.373788841 158.0
60.378712697 146.0
60.383636553 153.0
60.388560409 154.0
60.393484265 169.0
60.398408121 151.0
60.403331977 167.0
60.408255833 147.0
60.413179689 160.0
60.418103545 144.0
60.423027401 133.0
60.427951257 156.0
60.432875113 154.0
60.437798969 144.0
60.442722825 128.0
60.447646681 178.0
60.452570537 162.0
60.457494393 140.0
60.462418249 154.0
60.467342105 161.0
60.472265961 163.0
60.477189817 152.0
60.482113673 157.0
60.487037529 147.0
60.491961385 140.0
60.496885241 141.0
60.501809097 153.0
60.506732953 141.0
60.511656809 151.0
60.516580665 156.0
60.521504521 160.0
60.526428377 154.0
60.531352233 166.0
60.536276089 141.0
60.541199945 126.0
60.546123801 155.0
60.551047657 164.0
60.555971513 152.0
60.560895369 164.0
60.565819225 157.0
60.570743081 161.0
60.575666937 154.0
60.580590793 147.0
60.585514649 173.0
60.590438505 144.0
60.595362361 169.0
60.600286217 146.0
60.605210073 131.0
60.610133929 156.0
60.615057785 157.0
60.619981641 166.0
60.624905497 167.0
60.629829353 162.0
60.634753209 161.0
60.639677065 141.0
60.644600921 174.0
60.649524777 138.0
60.654448633 182.0
60.659372489 168.0
60.664296345 155.0
60.669220201 163.0
60.674144057 181.0
60.679067913 194.0
60.683991769 184.0
60.688915625 163.0
60.693839481 168.0
60.698763337 189.0
60.703687193 199.0
60.708611049 176.0
60.713534905 179.0
60.718458761 216.0
60.723382617 181.0
60.728306473 206.0
60.733230329 200.0
60.738154185 204.0
60.743078042 208.0
60.748001898 259.0
60.752925754 271.0
60.757849610 266.0
60.762773466 266.0
60.767697322 316.0
60.772621178 351.0
60.777545034 375.0
60.782468890 414.0
60.787392746 474.0
60.792316602 514.0
60.797240458 590.0
60.802164314 656.0
60.807088170 774.0
60.812012026 914.0
60.816935882 1029.0
60.821859738 1126.0
60.826783594 1204.0
60.831707450 1260.0
60.836631306 1265.0
60.841555162 1270.0
60.846479018 1301.0
60.851402874 1293.0
60.856326730 1209.0
60.861250586 1167.0
60.866174442 1135.0
60.871098298 1017.0
60.876022154 947.0
60.880946010 832.0
60.885869866 804.0
60.890793722 752.0
60.895717578 672.0
60.900641434 670.0
60.905565290 643.0
60.910489146 650.0
60.915413002 603.0
60.920336858 593.0
60.925260714 592.0
60.930184570 570.0
60.935108426 541.0
60.940032282 512.0
60.944956138 485.0
60.949879994 433.0
60.954803850 368.0
60.959727706 376.0
60.964651562 323.0
60.969575418 291.0
60.974499274 287.0
60.979423130 282.0
60.984346986 282.0
60.989270842 265.0
60.994194698 229.0
60.999118554 218.0
61.004042410 207.0
61.008966266 225.0
61.013890122 214.0
61.018813978 192.0
61.023737834 204.0
61.028661690 197.0
61.033585546 204.0
61.038509402 191.0
61.043433258 207.0
61.048357114 182.0
61.053280970 165.0
61.058204826 166.0
61.063128682 188.0
61.068052538 179.0
61.072976394 183.0
61.077900250 199.0
61.082824106 172.0
61.087747962 156.0
61.092671818 187.0
61.097595674 171.0
61.102519530 156.0
61.107443386 155.0
61.112367243 150.0
61.117291099 151.0
61.122214955 169.0
61.127138811 182.0
61.132062667 178.0
61.136986523 204.0
61.141910379 153.0
61.146834235 152.0
61.151758091 189.0
61.156681947 161.0
61.161605803 154.0
61.166529659 143.0
61.171453515 156.0
61.176377371 152.0
61.181301227 184.0
61.186225083 156.0
61.191148939 151.0
61.196072795 160.0
61.200996651 166.0
61.205920507 183.0
61.210844363 144.0
61.215768219 189.0
61.220692075 138.0
61.225615931 157.0
61.230539787 141.0
61.235463643 157.0
61.240387499 166.0
61.245311355 164.0
61.250235211 163.0
61.255159067 149.0
61.260082923 169.0
61.265006779 166.0
61.269930635 170.0
61.274854491 160.0
61.279778347 163.0
61.284702203 142.0
61.289626059 140.0
61.294549915 159.0
61.299473771 152.0
61.304397627 180.0
61.309321483 150.0
61.314245339 159.0
61.319169195 170.0
61.324093051 150.0
61.329016907 157.0
61.333940763 157.0
61.338864619 142.0
61.343788475 157.0
61.348712331 179.0
61.353636187 152.0
61.358560043 167.0
61.363483899 148.0
61.368407755 141.0
61.373331611 143.0
61.378255467 162.0
61.383179323 152.0
61.388103179 146.0
61.393027035 162.0
61.397950891 147.0
61.402874747 148.0
61.407798603 146.0
61.412722459 152.0
61.417646315 141.0
61.422570171 150.0
61.427494027 142.0
61.432417883 176.0
61.437341739 154.0
61.442265595 143.0
61.447189451 147.0
61.452113307 152.0
61.457037163 148.0
61.461961019 182.0
61.466884875 162.0
61.471808731 148.0
61.476732587 143.0
61.481656443 156.0
61.486580300 166.0
61.491504156 167.0
61.496428012 169.0
61.501351868 162.0
61.506275724 126.0
61.511199580 156.0
61.516123436 152.0
61.521047292 169.0
61.525971148 154.0
61.530895004 169.0
61.535818860 145.0
61.540742716 162.0
61.545666572 164.0
61.550590428 158.0
61.555514284 150.0
61.560438140 152.0
61.565361996 150.0
61.570285852 167.0
61.575209708 166.0
61.580133564 145.0
61.585057420 131.0
61.589981276 154.0
61.594905132 163.0
61.599828988 154.0
61.604752844 121.0
61.609676700 135.0
61.614600556 150.0
61.619524412 151.0
61.624448268 157.0
61.629372124 137.0
61.634295980 168.0
61.639219836 152.0
61.644143692 143.0
61.649067548 146.0
61.653991404 148.0
61.658915260 138.0
61.663839116 165.0
61.668762972 127.0
61.673686828 156.0
61.678610684 150.0
61.683534540 131.0
61.688458396 138.0
61.693382252 165.0
61.698306108 147.0
61.703229964 156.0
61.708153820 162.0
61.713077676 129.0
61.718001532 151.0
61.722925388 169.0
61.727849244 150.0
61.732773100 145.0
61.737696956 147.0
61.742620812 137.0
61.747544668 172.0
61.752468524 146.0
61.757392380 183.0
61.762316236 149.0
61.767240092 156.0
61.772163948 125.0
61.777087804 175.0
61.782011660 146.0
61.786935516 147.0
61.791859372 139.0
61.796783228 145.0
61.801707084 159.0
61.806630940 128.0
61.811554796 173.0
61.816478652 154.0
61.821402508 154.0
61.826326364 135.0
61.831250220 144.0
61.836174076 137.0
61.841097932 156.0
61.846021788 136.0
61.850945644 139.0
61.855869501 167.0
61.860793357 149.0
61.865717213 157.0
61.870641069 152.0
61.875564925 165.0
61.880488781 161.0
61.885412637 164.0
61.890336493 167.0
61.895260349 124.0
61.900184205 139.0
61.905108061 142.0
61.910031917 151.0
61.914955773 134.0
61.919879629 151.0
61.924803485 151.0
61.929727341 167.0
61.934651197 177.0
61.939575053 149.0
61.944498909 132.0
61.949422765 144.0
61.954346621 156.0
61.959270477 170.0
61.964194333 150.0
61.969118189 147.0
61.974042045 167.0
61.978965901 170.0
61.983889757 154.0
61.988813613 143.0
61.993737469 139.0
61.998661325 155.0
62.003585181 156.0
62.008509037 147.0
62.013432893 152.0
62.018356749 150.0
62.023280605 127.0
62.028204461 153.0
62.033128317 158.0
62.038052173 136.0
62.042976029 157.0
62.047899885 141.0
62.052823741 157.0
62.057747597 143.0
62.062671453 148.0
62.067595309 171.0
62.072519165 151.0
62.077443021 152.0
62.082366877 162.0
62.087290733 141.0
62.092214589 171.0
62.097138445 162.0
62.102062301 152.0
62.106986157 162.0
62.111910013 157.0
62.116833869 158.0
62.121757725 147.0
62.126681581 141.0
62.131605437 146.0
62.136529293 170.0
62.141453149 140.0
62.146377005 154.0
62.151300861 149.0
62.156224717 141.0
62.161148573 148.0
62.166072429 141.0
62.170996285 165.0
62.175920141 150.0
62.180843997 161.0
62.185767853 159.0
62.190691709 158.0
62.195615565 149.0
62.200539421 159.0
62.205463277 135.0
62.210387133 169.0
62.215310989 150.0
62.220234845 159.0
62.225158702 159.0
62.230082558 141.0
62.235006414 137.0
62.239930270 156.0
62.244854126 145.0
62.249777982 154.0
62.254701838 151.0
62.259625694 152.0
62.264549550 155.0
62.269473406 153.0
62.274397262 159.0
62.279321118 161.0
62.284244974 152.0
62.289168830 147.0
62.294092686 149.0
62.299016542 164.0
62.303940398 152.0
62.308864254 155.0
62.313788110 183.0
62.318711966 156.0
62.323635822 172.0
62.328559678 167.0
62.333483534 148.0
62.338407390 156.0
62.343331246 151.0
62.348255102 147.0
62.353178958 173.0
62.358102814 161.0
62.363026670 150.0
62.367950526 152.0
62.372874382 137.0
62.377798238 138.0
62.382722094 131.0
62.387645950 153.0
62.392569806 169.0
62.397493662 170.0
62.402417518 137.0
62.407341374 148.0
62.412265230 170.0
62.417189086 158.0
62.422112942 149.0
62.427036798 157.0
62.431960654 169.0
62.436884510 134.0
62.441808366 162.0
62.446732222 154.0
62.451656078 152.0
62.456579934 151.0
62.461503790 144.0
62.466427646 140.0
62.471351502 155.0
62.476275358 124.0
62.481199214 151.0
62.486123070 149.0
62.491046926 183.0
62.495970782 181.0
62.500894638 172.0
62.505818494 149.0
62.510742350 164.0
62.515666206 133.0
62.520590062 151.0
62.525513918 159.0
62.530437774 138.0
62.535361630 152.0
62.540285486 144.0
62.545209342 151.0
62.550133198 146.0
62.555057054 134.0
62.559980910 159.0
62.564904766 142.0
62.569828622 136.0
62.574752478 190.0
62.579676334 154.0
62.584600190 132.0
62.589524046 135.0
62.594447903 165.0
62.599371759 178.0
62.604295615 141.0
62.609219471 154.0
62.614143327 138.0
62.619067183 149.0
62.623991039 163.0
62.628914895 158.0
62.633838751 148.0
62.638762607 176.0
62.643686463 174.0
62.648610319 168.0
62.653534175 160.0
62.658458031 149.0
62.663381887 149.0
62.668305743 163.0
62.673229599 151.0
62.678153455 162.0
62.683077311 164.0
62.688001167 159.0
62.692925023 138.0
62.697848879 137.0
62.702772735 155.0
62.707696591 144.0
62.712620447 151.0
62.717544303 144.0
62.722468159 168.0
62.727392015 143.0
62.732315871 181.0
62.737239727 157.0
62.742163583 130.0
62.747087439 157.0
62.752011295 137.0
62.756935151 135.0
62.761859007 175.0
62.766782863 154.0
62.771706719 133.0
62.776630575 142.0
62.781554431 154.0
62.786478287 177.0
62.791402143 173.0
62.796325999 150.0
62.801249855 168.0
62.806173711 165.0
62.811097567 150.0
62.816021423 167.0
62.820945279 167.0
62.825869135 150.0
62.830792991 161.0
62.835716847 161.0
62.840640703 153.0
62.845564559 161.0
62.850488415 131.0
62.855412271 160.0
62.860336127 171.0
62.865259983 152.0
62.870183839 161.0
62.875107695 136.0
62.880031551 138.0
62.884955407 129.0
62.889879263 148.0
62.894803119 160.0
62.899726975 154.0
62.904650831 148.0
62.909574687 171.0
62.914498543 143.0
62.919422399 161.0
62.924346255 149.0
62.929270111 151.0
62.934193967 162.0
62.939117823 145.0
62.944041679 143.0
62.948965535 153.0
62.953889391 170.0
62.958813247 157.0
62.963737104 157.0
62.968660960 140.0
62.973584816 137.0
62.978508672 143.0
62.983432528 152.0
62.988356384 151.0
62.993280240 169.0
62.998204096 156.0
63.003127952 179.0
63.008051808 189.0
63.012975664 142.0
63.017899520 170.0
63.022823376 154.0
63.027747232 168.0
63.032671088 159.0
63.037594944 165.0
63.042518800 165.0
63.047442656 163.0
63.052366512 150.0
63.057290368 165.0
63.062214224 156.0
63.067138080 160.0
63.072061936 155.0
63.076985792 155.0
63.081909648 159.0
63.086833504 166.0
63.091757360 174.0
63.096681216 193.0
63.101605072 199.0
63.106528928 155.0
63.111452784 143.0
63.116376640 149.0
63.121300496 159.0
63.126224352 160.0
63.131148208 187.0
63.136072064 143.0
63.140995920 169.0
63.145919776 158.0
63.150843632 154.0
63.155767488 152.0
63.160691344 154.0
63.165615200 161.0
63.170539056 164.0
63.175462912 170.0
63.180386768 170.0
63.185310624 170.0
63.190234480 165.0
63.195158336 163.0
63.200082192 156.0
63.205006048 176.0
63.209929904 172.0
63.214853760 174.0
63.219777616 162.0
63.224701472 169.0
63.229625328 156.0
63.234549184 163.0
63.239473040 176.0
63.244396896 148.0
63.249320752 188.0
63.254244608 137.0
63.259168464 171.0
63.264092320 171.0
63.269016176 152.0
63.273940032 152.0
63.278863888 154.0
63.283787744 193.0
63.288711600 156.0
63.293635456 166.0
63.298559312 165.0
63.303483168 164.0
63.308407024 156.0
63.313330880 185.0
63.318254736 159.0
63.323178592 143.0
63.328102448 160.0
63.333026304 167.0
63.337950161 174.0
63.342874017 134.0
63.347797873 184.0
63.352721729 159.0
63.357645585 159.0
63.362569441 149.0
63.367493297 164.0
63.372417153 172.0
63.377341009 162.0
63.382264865 191.0
63.387188721 144.0
63.392112577 166.0
63.397036433 156.0
63.401960289 177.0
63.406884145 178.0
63.411808001 152.0
63.416731857 192.0
63.421655713 170.0
63.426579569 182.0
63.431503425 175.0
63.436427281 165.0
63.441351137 160.0
63.446274993 166.0
63.451198849 155.0
63.456122705 192.0
63.461046561 155.0
63.465970417 158.0
63.470894273 169.0
63.475818129 183.0
63.480741985 152.0
63.485665841 179.0
63.490589697 165.0
63.495513553 168.0
63.500437409 162.0
63.505361265 178.0
63.510285121 185.0
63.515208977 153.0
63.520132833 164.0
63.525056689 168.0
63.529980545 169.0
63.534904401 156.0
63.539828257 195.0
63.544752113 156.0
63.549675969 200.0
63.554599825 183.0
63.559523681 148.0
63.564447537 177.0
63.569371393 161.0
63.574295249 176.0
63.579219105 164.0
63.584142961 192.0
63.589066817 191.0
63.593990673 163.0
63.598914529 182.0
63.603838385 172.0
63.608762241 182.0
63.613686097 186.0
63.618609953 164.0
63.623533809 169.0
63.628457665 196.0
63.633381521 184.0
63.638305377 161.0
63.643229233 176.0
63.648153089 167.0
63.653076945 164.0
63.658000801 161.0
63.662924657 197.0
63.667848513 165.0
63.672772369 182.0
63.677696225 189.0
63.682620081 187.0
63.687543937 177.0
63.692467793 166.0
63.697391649 174.0
63.702315505 184.0
63.707239362 150.0
63.712163218 169.0
63.717087074 189.0
63.722010930 157.0
63.726934786 177.0
63.731858642 192.0
63.736782498 154.0
63.741706354 177.0
63.746630210 192.0
63.751554066 175.0
63.756477922 167.0
63.761401778 168.0
63.766325634 202.0
63.771249490 179.0
63.776173346 189.0
63.781097202 199.0
63.786021058 173.0
63.790944914 212.0
63.795868770 175.0
63.800792626 177.0
63.805716482 172.0
63.810640338 182.0
63.815564194 167.0
63.820488050 212.0
63.825411906 207.0
63.830335762 159.0
63.835259618 173.0
63.840183474 197.0
63.845107330 197.0
63.850031186 190.0
63.854955042 194.0
63.859878898 178.0
63.864802754 201.0
63.869726610 212.0
63.874650466 197.0
63.879574322 198.0
63.884498178 181.0
63.889422034 186.0
63.894345890 181.0
63.899269746 195.0
63.904193602 193.0
63.909117458 180.0
63.914041314 197.0
63.918965170 184.0
63.923889026 170.0
63.928812882 180.0
63.933736738 170.0
63.938660594 179.0
63.943584450 195.0
63.948508306 186.0
63.953432162 188.0
63.958356018 209.0
63.963279874 208.0
63.968203730 211.0
63.973127586 192.0
63.978051442 212.0
63.982975298 192.0
63.987899154 176.0
63.992823010 221.0
63.997746866 208.0
64.002670722 200.0
64.007594578 184.0
64.012518434 211.0
64.017442290 220.0
64.022366146 225.0
64.027290002 176.0
64.032213858 223.0
64.037137714 190.0
64.042061570 209.0
64.046985426 220.0
64.051909282 185.0
64.056833138 218.0
64.061756994 229.0
64.066680850 203.0
64.071604706 191.0
64.076528563 195.0
64.081452419 214.0
64.086376275 215.0
64.091300131 216.0
64.096223987 227.0
64.101147843 224.0
64.106071699 221.0
64.110995555 210.0
64.115919411 194.0
64.120843267 248.0
64.125767123 201.0
64.130690979 239.0
64.135614835 212.0
64.140538691 237.0
64.145462547 228.0
64.150386403 217.0
64.155310259 210.0
64.160234115 202.0
64.165157971 231.0
64.170081827 255.0
64.175005683 224.0
64.179929539 235.0
64.184853395 230.0
64.189777251 239.0
64.194701107 235.0
64.199624963 265.0
64.204548819 239.0
64.209472675 239.0
64.214396531 248.0
64.219320387 269.0
64.224244243 247.0
64.229168099 260.0
64.234091955 220.0
64.239015811 226.0
64.243939667 287.0
64.248863523 235.0
64.253787379 277.0
64.258711235 284.0
64.263635091 258.0
64.268558947 266.0
64.273482803 269.0
64.278406659 267.0
64.283330515 273.0
64.288254371 259.0
64.293178227 297.0
64.298102083 274.0
64.303025939 280.0
64.307949795 281.0
64.312873651 273.0
64.317797507 285.0
64.322721363 305.0
64.327645219 292.0
64.332569075 292.0
64.337492931 270.0
64.342416787 302.0
64.347340643 283.0
64.352264499 308.0
64.357188355 285.0
64.362112211 289.0
64.367036067 322.0
64.371959923 289.0
64.376883779 311.0
64.381807635 337.0
64.386731491 298.0
64.391655347 328.0
64.396579203 308.0
64.401503059 311.0
64.406426915 351.0
64.411350771 308.0
64.416274627 321.0
64.421198483 348.0
64.426122339 326.0
64.431046195 348.0
64.435970051 363.0
64.440893907 358.0
64.445817764 347.0
64.450741620 380.0
64.455665476 354.0
64.460589332 390.0
64.465513188 378.0
64.470437044 370.0
64.475360900 391.0
64.480284756 416.0
64.485208612 378.0
64.490132468 437.0
64.495056324 390.0
64.499980180 444.0
64.504904036 460.0
64.509827892 415.0
64.514751748 414.0
64.519675604 435.0
64.524599460 453.0
64.529523316 486.0
64.534447172 476.0
64.539371028 451.0
64.544294884 503.0
64.549218740 475.0
64.554142596 488.0
64.559066452 535.0
64.563990308 547.0
64.568914164 521.0
64.573838020 575.0
64.578761876 582.0
64.583685732 574.0
64.588609588 619.0
64.593533444 600.0
64.598457300 594.0
64.603381156 598.0
64.608305012 618.0
64.613228868 687.0
64.618152724 657.0
64.623076580 663.0
64.628000436 620.0
64.632924292 615.0
64.637848148 717.0
64.642772004 715.0
64.647695860 711.0
64.652619716 690.0
64.657543572 790.0
64.662467428 792.0
64.667391284 723.0
64.672315140 789.0
64.677238996 805.0
64.682162852 839.0
64.687086708 831.0
64.692010564 858.0
64.696934420 815.0
64.701858276 911.0
64.706782132 902.0
64.711705988 995.0
64.716629844 924.0
64.721553700 906.0
64.726477556 967.0
64.731401412 906.0
64.736325268 1038.0
64.741249124 980.0
64.746172980 942.0
64.751096836 1002.0
64.756020692 969.0
64.760944548 1013.0
64.765868404 978.0
64.770792260 999.0
64.775716116 1069.0
64.780639972 1058.0
64.785563828 1136.0
64.790487684 1056.0
64.795411540 1106.0
64.800335396 1125.0
64.805259252 1072.0
64.810183108 1043.0
64.815106965 1116.0
64.820030821 1076.0
64.824954677 1120.0
64.829878533 1112.0
64.834802389 1146.0
64.839726245 1113.0
64.844650101 1199.0
64.849573957 1155.0
64.854497813 1125.0
64.859421669 1172.0
64.864345525 1194.0
64.869269381 1166.0
64.874193237 1173.0
64.879117093 1296.0
64.884040949 1196.0
64.888964805 1142.0
64.893888661 1133.0
64.898812517 1179.0
64.903736373 1170.0
64.908660229 1150.0
64.913584085 1162.0
64.918507941 1104.0
64.923431797 1154.0
64.928355653 1177.0
64.933279509 1176.0
64.938203365 1122.0
64.943127221 1082.0
64.948051077 1187.0
64.952974933 1130.0
64.957898789 1124.0
64.962822645 1171.0
64.967746501 1112.0
64.972670357 1117.0
64.977594213 1085.0
64.982518069 1096.0
64.987441925 1076.0
64.992365781 1065.0
64.997289637 1113.0
65.002213493 1049.0
65.007137349 1070.0
65.012061205 1007.0
65.016985061 1061.0
65.021908917 936.0
65.026832773 981.0
65.031756629 971.0
65.036680485 959.0
65.041604341 921.0
65.046528197 952.0
65.051452053 908.0
65.056375909 909.0
65.061299765 903.0
65.066223621 855.0
65.071147477 897.0
65.076071333 863.0
65.080995189 825.0
65.085919045 835.0
65.090842901 849.0
65.095766757 792.0
65.100690613 781.0
65.105614469 718.0
65.110538325 772.0
65.115462181 744.0
65.120386037 753.0
65.125309893 704.0
65.130233749 700.0
65.135157605 739.0
65.140081461 704.0
65.145005317 691.0
65.149929173 660.0
65.154853029 659.0
65.159776885 648.0
65.164700741 622.0
65.169624597 618.0
65.174548453 612.0
65.179472309 624.0
65.184396165 624.0
65.189320022 545.0
65.194243878 603.0
65.199167734 538.0
65.204091590 522.0
65.209015446 552.0
65.213939302 555.0
65.218863158 509.0
65.223787014 537.0
65.228710870 519.0
65.233634726 465.0
65.238558582 502.0
65.243482438 491.0
65.248406294 466.0
65.253330150 443.0
65.258254006 457.0
65.263177862 430.0
65.268101718 455.0
65.273025574 427.0
65.277949430 433.0
65.282873286 398.0
65.287797142 345.0
65.292720998 389.0
65.297644854 356.0
65.302568710 417.0
65.307492566 378.0
65.312416422 366.0
65.317340278 400.0
65.322264134 365.0
65.327187990 380.0
65.332111846 384.0
65.337035702 370.0
65.341959558 335.0
65.346883414 350.0
65.351807270 348.0
65.356731126 353.0
65.361654982 309.0
65.366578838 305.0
65.371502694 327.0
65.376426550 331.0
65.381350406 329.0
65.386274262 272.0
65.391198118 314.0
65.396121974 328.0
65.401045830 288.0
65.405969686 298.0
65.410893542 319.0
65.415817398 276.0
65.420741254 291.0
65.425665110 304.0
65.430588966 289.0
65.435512822 321.0
65.440436678 319.0
65.445360534 296.0
65.450284390 274.0
65.455208246 290.0
65.460132102 271.0
65.465055958 244.0
65.469979814 268.0
65.474903670 273.0
65.479827526 229.0
65.484751382 271.0
65.489675238 239.0
65.494599094 244.0
65.499522950 272.0
65.504446806 245.0
65.509370662 245.0
65.514294518 262.0
65.519218374 223.0
65.524142230 275.0
65.529066086 272.0
65.533989942 278.0
65.538913798 272.0
65.543837654 266.0
65.548761510 237.0
65.553685366 256.0
65.558609223 274.0
65.563533079 256.0
65.568456935 274.0
65.573380791 239.0
65.578304647 232.0
65.583228503 232.0
65.588152359 243.0
65.593076215 261.0
65.598000071 245.0
65.602923927 219.0
65.607847783 223.0
65.612771639 257.0
65.617695495 199.0
65.622619351 196.0
65.627543207 240.0
65.632467063 219.0
65.637390919 271.0
65.642314775 217.0
65.647238631 228.0
65.652162487 213.0
65.657086343 231.0
65.662010199 232.0
65.666934055 232.0
65.671857911 224.0
65.676781767 228.0
65.681705623 211.0
65.686629479 213.0
65.691553335 236.0
65.696477191 226.0
65.701401047 221.0
65.706324903 218.0
65.711248759 227.0
65.716172615 213.0
65.721096471 220.0
65.726020327 206.0
65.730944183 227.0
65.735868039 227.0
65.740791895 204.0
65.745715751 218.0
65.750639607 231.0
65.755563463 222.0
65.760487319 229.0
65.765411175 256.0
65.770335031 215.0
65.775258887 218.0
65.780182743 207.0
65.785106599 219.0
65.790030455 216.0
65.794954311 216.0
65.799878167 209.0
65.804802023 221.0
65.809725879 261.0
65.814649735 207.0
65.819573591 206.0
65.824497447 206.0
65.829421303 222.0
65.834345159 215.0
65.839269015 216.0
65.844192871 218.0
65.849116727 228.0
65.854040583 224.0
65.858964439 223.0
65.863888295 208.0
65.868812151 231.0
65.873736007 212.0
65.878659863 211.0
65.883583719 241.0
65.888507575 204.0
65.893431431 222.0
65.898355287 200.0
65.903279143 225.0
65.908202999 235.0
65.913126855 222.0
65.918050711 179.0
65.922974567 210.0
65.927898424 223.0
65.932822280 207.0
65.937746136 256.0
65.942669992 218.0
65.947593848 213.0
65.952517704 233.0
65.957441560 234.0
65.962365416 228.0
65.967289272 218.0
65.972213128 221.0
65.977136984 255.0
65.982060840 262.0
65.986984696 208.0
65.991908552 215.0
65.996832408 240.0
66.001756264 233.0
66.006680120 255.0
66.011603976 264.0
66.016527832 255.0
66.021451688 234.0
66.026375544 221.0
66.031299400 223.0
66.036223256 265.0
66.041147112 279.0
66.046070968 231.0
66.050994824 231.0
66.055918680 257.0
66.060842536 228.0
66.065766392 234.0
66.070690248 218.0
66.075614104 270.0
66.080537960 271.0
66.085461816 274.0
66.090385672 255.0
66.095309528 217.0
66.100233384 268.0
66.105157240 278.0
66.110081096 265.0
66.115004952 215.0
66.119928808 261.0
66.124852664 235.0
66.129776520 241.0
66.134700376 269.0
66.139624232 222.0
66.144548088 259.0
66.149471944 281.0
66.154395800 227.0
66.159319656 265.0
66.164243512 275.0
66.169167368 233.0
66.174091224 276.0
66.179015080 293.0
66.183938936 230.0
66.188862792 268.0
66.193786648 261.0
66.198710504 263.0
66.203634360 283.0
66.208558216 270.0
66.213482072 325.0
66.218405928 318.0
66.223329784 260.0
66.228253640 268.0
66.233177496 283.0
66.238101352 263.0
66.243025208 289.0
66.247949064 281.0
66.252872920 265.0
66.257796776 280.0
66.262720632 273.0
66.267644488 270.0
66.272568344 288.0
66.277492200 289.0
66.282416056 293.0
66.287339912 312.0
66.292263768 227.0
66.297187625 268.0
66.302111481 270.0
66.307035337 259.0
66.311959193 232.0
66.316883049 290.0
66.321806905 287.0
66.326730761 294.0
66.331654617 291.0
66.336578473 308.0
66.341502329 274.0
66.346426185 289.0
66.351350041 280.0
66.356273897 321.0
66.361197753 305.0
66.366121609 295.0
66.371045465 309.0
66.375969321 272.0
66.380893177 265.0
66.385817033 288.0
66.390740889 298.0
66.395664745 299.0
66.400588601 323.0
66.405512457 329.0
66.410436313 312.0
66.415360169 303.0
66.420284025 318.0
66.425207881 283.0
66.430131737 275.0
66.435055593 336.0
66.439979449 322.0
66.444903305 317.0
66.449827161 336.0
66.454751017 307.0
66.459674873 280.0
66.464598729 297.0
66.469522585 320.0
66.474446441 302.0
66.479370297 278.0
66.484294153 322.0
66.489218009 339.0
66.494141865 315.0
66.499065721 333.0
66.503989577 343.0
66.508913433 332.0
66.513837289 313.0
66.518761145 346.0
66.523685001 336.0
66.528608857 334.0
66.533532713 301.0
66.538456569 330.0
66.543380425 336.0
66.548304281 296.0
66.553228137 335.0
66.558151993 334.0
66.563075849 342.0
66.567999705 329.0
66.572923561 305.0
66.577847417 358.0
66.582771273 336.0
66.587695129 345.0
66.592618985 334.0
66.597542841 345.0
66.602466697 365.0
66.607390553 350.0
66.612314409 333.0
66.617238265 355.0
66.622162121 344.0
66.627085977 356.0
66.632009833 313.0
66.636933689 363.0
66.641857545 373.0
66.646781401 378.0
66.651705257 351.0
66.656629113 392.0
66.661552969 319.0
66.666476826 352.0
66.671400682 370.0
66.676324538 322.0
66.681248394 338.0
66.686172250 359.0
66.691096106 386.0
66.696019962 341.0
66.700943818 361.0
66.705867674 397.0
66.710791530 387.0
66.715715386 382.0
66.720639242 388.0
66.725563098 387.0
66.730486954 369.0
66.735410810 422.0
66.740334666 393.0
66.745258522 391.0
66.750182378 376.0
66.755106234 359.0
66.760030090 376.0
66.764953946 380.0
66.769877802 357.0
66.774801658 415.0
66.779725514 435.0
66.784649370 390.0
66.789573226 368.0
66.794497082 372.0
66.799420938 377.0
66.804344794 398.0
66.809268650 391.0
66.814192506 370.0
66.819116362 430.0
66.824040218 394.0
66.828964074 433.0
66.833887930 367.0
66.838811786 404.0
66.843735642 431.0
66.848659498 420.0
66.853583354 400.0
66.858507210 455.0
66.863431066 444.0
66.868354922 393.0
66.873278778 427.0
66.878202634 433.0
66.883126490 456.0
66.888050346 450.0
66.892974202 439.0
66.897898058 453.0
66.902821914 417.0
66.907745770 426.0
66.912669626 444.0
66.917593482 435.0
66.922517338 412.0
66.927441194 479.0
66.932365050 387.0
66.937288906 411.0
66.942212762 439.0
66.947136618 477.0
66.952060474 405.0
66.956984330 460.0
66.961908186 476.0
66.966832042 446.0
66.971755898 496.0
66.976679754 457.0
66.981603610 441.0
66.986527466 490.0
66.991451322 446.0
66.996375178 460.0
67.001299034 512.0
67.006222890 428.0
67.011146746 501.0
67.016070602 465.0
67.020994458 476.0
67.025918314 431.0
67.030842170 470.0
67.035766026 480.0
67.040689883 494.0
67.045613739 451.0
67.050537595 488.0
67.055461451 491.0
67.060385307 479.0
67.065309163 461.0
67.070233019 502.0
67.075156875 477.0
67.080080731 496.0
67.085004587 503.0
67.089928443 474.0
67.094852299 538.0
67.099776155 499.0
67.104700011 479.0
67.109623867 492.0
67.114547723 476.0
67.119471579 499.0
67.124395435 513.0
67.129319291 492.0
67.134243147 509.0
67.139167003 502.0
67.144090859 524.0
67.149014715 565.0
67.153938571 556.0
67.158862427 515.0
67.163786283 549.0
67.168710139 584.0
67.173633995 543.0
67.178557851 571.0
67.183481707 542.0
67.188405563 509.0
67.193329419 493.0
67.198253275 536.0
67.203177131 580.0
67.208100987 576.0
67.213024843 515.0
67.217948699 569.0
67.222872555 597.0
67.227796411 537.0
67.232720267 598.0
67.237644123 591.0
67.242567979 551.0
67.247491835 551.0
67.252415691 570.0
67.257339547 588.0
67.262263403 628.0
67.267187259 601.0
67.272111115 609.0
67.277034971 606.0
67.281958827 578.0
67.286882683 580.0
67.291806539 633.0
67.296730395 625.0
67.301654251 622.0
67.306578107 647.0
67.311501963 592.0
67.316425819 623.0
67.321349675 599.0
67.326273531 607.0
67.331197387 663.0
67.336121243 653.0
67.341045099 624.0
67.345968955 639.0
67.350892811 660.0
67.355816667 605.0
67.360740523 648.0
67.365664379 644.0
67.370588235 670.0
67.375512091 614.0
67.380435947 636.0
67.385359803 705.0
67.390283659 653.0
67.395207515 701.0
67.400131371 710.0
67.405055227 663.0
67.409979084 704.0
67.414902940 701.0
67.419826796 738.0
67.424750652 706.0
67.429674508 747.0
67.434598364 701.0
67.439522220 692.0
67.444446076 773.0
67.449369932 734.0
67.454293788 728.0
67.459217644 741.0
67.464141500 765.0
67.469065356 773.0
67.473989212 769.0
67.478913068 792.0
67.483836924 783.0
67.488760780 804.0
67.493684636 792.0
67.498608492 822.0
67.503532348 799.0
67.508456204 789.0
67.513380060 770.0
67.518303916 807.0
67.523227772 838.0
67.528151628 866.0
67.533075484 852.0
67.537999340 848.0
67.542923196 859.0
67.547847052 832.0
67.552770908 888.0
67.557694764 904.0
67.562618620 888.0
67.567542476 921.0
67.572466332 900.0
67.577390188 932.0
67.582314044 867.0
67.587237900 926.0
67.592161756 931.0
67.597085612 992.0
67.602009468 933.0
67.606933324 990.0
67.611857180 970.0
67.616781036 989.0
67.621704892 965.0
67.626628748 1060.0
67.631552604 1018.0
67.636476460 1049.0
67.641400316 1019.0
67.646324172 1074.0
67.651248028 1104.0
67.656171884 1084.0
67.661095740 1082.0
67.666019596 1113.0
67.670943452 1155.0
67.675867308 1177.0
67.680791164 1205.0
67.685715020 1254.0
67.690638876 1281.0
67.695562732 1228.0
67.700486588 1329.0
67.705410444 1350.0
67.710334300 1351.0
67.715258156 1414.0
67.720182012 1483.0
67.725105868 1565.0
67.730029724 1518.0
67.734953580 1725.0
67.739877436 1717.0
67.744801292 1717.0
67.749725148 1853.0
67.754649004 2017.0
67.759572860 2018.0
67.764496716 2153.0
67.769420572 2280.0
67.774344428 2344.0
67.779268285 2419.0
67.784192141 2599.0
67.789115997 2662.0
67.794039853 2740.0
67.798963709 2897.0
67.803887565 2837.0
67.808811421 3046.0
67.813735277 3091.0
67.818659133 3224.0
67.823582989 3344.0
67.828506845 3427.0
67.833430701 3421.0
67.838354557 3473.0
67.843278413 3724.0
67.848202269 3602.0
67.853126125 3526.0
67.858049981 3582.0
67.862973837 3654.0
67.867897693 3541.0
67.872821549 3532.0
67.877745405 3620.0
67.882669261 3609.0
67.887593117 3587.0
67.892516973 3470.0
67.897440829 3501.0
67.902364685 3600.0
67.907288541 3413.0
67.912212397 3385.0
67.917136253 3495.0
67.922060109 3411.0
67.926983965 3461.0
67.931907821 3526.0
67.936831677 3643.0
67.941755533 3671.0
67.946679389 3799.0
67.951603245 3774.0
67.956527101 3893.0
67.961450957 4046.0
67.966374813 4077.0
67.971298669 4487.0
67.976222525 4538.0
67.981146381 4727.0
67.986070237 4835.0
67.990994093 5250.0
67.995917949 5421.0
68.000841805 5550.0
68.005765661 6154.0
68.010689517 6256.0
68.015613373 6669.0
68.020537229 6941.0
68.025461085 7539.0
68.030384941 7771.0
68.035308797 8334.0
68.040232653 9290.0
68.045156509 9888.0
68.050080365 10742.0
68.055004221 11544.0
68.059928077 12811.0
68.064851933 14121.0
68.069775789 15284.0
68.074699645 17078.0
68.079623501 19027.0
68.084547357 20960.0
68.089471213 24180.0
68.094395069 27735.0
68.099318925 32140.0
68.104242781 38106.0
68.109166637 45795.0
68.114090493 57724.0
68.119014349 73994.0
68.123938205 98983.0
68.128862061 134511.0
68.133785917 182208.0
68.138709773 225291.0
68.143633629 269137.0
68.148557486 294015.0
68.153481342 316953.0
68.158405198 325411.0
68.163329054 338585.0
68.168252910 338266.0
68.173176766 337027.0
68.178100622 320526.0
68.183024478 297678.0
68.187948334 258936.0
68.192872190 209758.0
68.197796046 166102.0
68.202719902 124720.0
68.207643758 102271.0
68.212567614 77943.0
68.217491470 66336.0
68.222415326 50667.0
68.227339182 45137.0
68.232263038 34951.0
68.237186894 32850.0
68.242110750 26930.0
68.247034606 25776.0
68.251958462 22526.0
68.256882318 21510.0
68.261806174 20308.0
68.266730030 19514.0
68.271653886 19766.0
68.276577742 20151.0
68.281501598 20765.0
68.286425454 22616.0
68.291349310 23352.0
68.296273166 27644.0
68.301197022 29949.0
68.306120878 38093.0
68.311044734 43588.0
68.315968590 57851.0
68.320892446 73371.0
68.325816302 89513.0
68.330740158 114064.0
68.335664014 125936.0
68.340587870 148006.0
68.345511726 152260.0
68.350435582 166540.0
68.355359438 165408.0
68.360283294 170672.0
68.365207150 164595.0
68.370131006 160192.0
68.375054862 149217.0
68.379978718 128933.0
68.384902574 115745.0
68.389826430 88468.0
68.394750286 77158.0
68.399674142 57049.0
68.404597998 48292.0
68.409521854 37347.0
68.414445710 30477.0
68.419369566 25752.0
68.424293422 20511.0
68.429217278 18874.0
68.434141134 15079.0
68.439064990 14425.0
68.443988846 11658.0
68.448912702 11396.0
68.453836558 9628.0
68.458760414 9297.0
68.463684270 8308.0
68.468608126 7943.0
68.473531982 7274.0
68.478455838 6641.0
68.483379694 6417.0
68.488303550 6005.0
68.493227406 5764.0
68.498151262 5429.0
68.503075118 5354.0
68.507998974 4970.0
68.512922830 4943.0
68.517846687 4435.0
68.522770543 4420.0
68.527694399 4181.0
68.532618255 4159.0
68.537542111 4034.0
68.542465967 3898.0
68.547389823 3682.0
68.552313679 3707.0
68.557237535 3540.0
68.562161391 3467.0
68.567085247 3362.0
68.572009103 3261.0
68.576932959 3112.0
68.581856815 2991.0
68.586780671 2916.0
68.591704527 2891.0
68.596628383 2721.0
68.601552239 2699.0
68.606476095 2765.0
68.611399951 2591.0
68.616323807 2545.0
68.621247663 2485.0
68.626171519 2471.0
68.631095375 2347.0
68.636019231 2245.0
68.640943087 2286.0
68.645866943 2271.0
68.650790799 2165.0
68.655714655 2154.0
68.660638511 2071.0
68.665562367 2032.0
68.670486223 1998.0
68.675410079 1938.0
68.680333935 1904.0
68.685257791 1922.0
68.690181647 1900.0
68.695105503 1825.0
68.700029359 1793.0
68.704953215 1735.0
68.709877071 1737.0
68.714800927 1728.0
68.719724783 1644.0
68.724648639 1646.0
68.729572495 1646.0
68.734496351 1662.0
68.739420207 1623.0
68.744344063 1558.0
68.749267919 1504.0
68.754191775 1487.0
68.759115631 1411.0
68.764039487 1434.0
68.768963343 1402.0
68.773887199 1416.0
68.778811055 1419.0
68.783734911 1397.0
68.788658767 1321.0
68.793582623 1280.0
68.798506479 1344.0
68.803430335 1328.0
68.808354191 1281.0
68.813278047 1277.0
68.818201903 1197.0
68.823125759 1254.0
68.828049615 1123.0
68.832973471 1209.0
68.837897327 1125.0
68.842821183 1135.0
68.847745039 1132.0
68.852668895 1114.0
68.857592751 1021.0
68.862516607 1177.0
68.867440463 1095.0
68.872364319 1077.0
68.877288175 1029.0
68.882212031 977.0
68.887135887 1049.0
68.892059744 993.0
68.896983600 1039.0
68.901907456 949.0
68.906831312 963.0
68.911755168 946.0
68.916679024 942.0
68.921602880 967.0
68.926526736 910.0
68.931450592 953.0
68.936374448 914.0
68.941298304 849.0
68.946222160 907.0
68.951146016 867.0
68.956069872 813.0
68.960993728 878.0
68.965917584 848.0
68.970841440 847.0
68.975765296 861.0
68.980689152 829.0
68.985613008 841.0
68.990536864 846.0
68.995460720 856.0
69.000384576 791.0
69.005308432 785.0
69.010232288 771.0
69.015156144 748.0
69.020080000 768.0
69.025003856 757.0
69.029927712 785.0
69.034851568 767.0
69.039775424 738.0
69.044699280 741.0
69.049623136 689.0
69.054546992 769.0
69.059470848 705.0
69.064394704 688.0
69.069318560 697.0
69.074242416 703.0
69.079166272 703.0
69.084090128 669.0
69.089013984 652.0
69.093937840 654.0
69.098861696 638.0
69.103785552 650.0
69.108709408 696.0
69.113633264 599.0
69.118557120 645.0
69.123480976 587.0
69.128404832 637.0
69.133328688 646.0
69.138252544 652.0
69.143176400 593.0
69.148100256 618.0
69.153024112 597.0
69.157947968 596.0
69.162871824 606.0
69.167795680 561.0
69.172719536 549.0
69.177643392 560.0
69.182567248 563.0
69.187491104 578.0
69.192414960 586.0
69.197338816 584.0
69.202262672 596.0
69.207186528 576.0
69.212110384 552.0
69.217034240 555.0
69.221958096 576.0
69.226881952 553.0
69.231805808 535.0
69.236729664 507.0
69.241653520 533.0
69.246577376 509.0
69.251501232 539.0
69.256425088 560.0
69.261348945 487.0
69.266272801 487.0
69.271196657 489.0
69.276120513 480.0
69.281044369 486.0
69.285968225 460.0
69.290892081 430.0
69.295815937 503.0
69.300739793 455.0
69.305663649 488.0
69.310587505 465.0
69.315511361 481.0
69.320435217 478.0
69.325359073 451.0
69.330282929 406.0
69.335206785 472.0
69.340130641 464.0
69.345054497 423.0
69.349978353 452.0
69.354902209 462.0
69.359826065 445.0
69.364749921 456.0
69.369673777 446.0
69.374597633 449.0
69.379521489 419.0
69.384445345 445.0
69.389369201 398.0
69.394293057 469.0
69.399216913 426.0
69.404140769 434.0
69.409064625 424.0
69.413988481 402.0
69.418912337 381.0
69.423836193 403.0
69.428760049 420.0
69.433683905 426.0
69.438607761 374.0
69.443531617 397.0
69.448455473 420.0
69.453379329 383.0
69.458303185 390.0
69.463227041 405.0
69.468150897 393.0
69.473074753 370.0
69.477998609 361.0
69.482922465 355.0
69.487846321 326.0
69.492770177 367.0
69.497694033 358.0
69.502617889 386.0
69.507541745 349.0
69.512465601 359.0
69.517389457 371.0
69.522313313 354.0
69.527237169 355.0
69.532161025 376.0
69.537084881 377.0
69.542008737 299.0
69.546932593 360.0
69.551856449 353.0
69.556780305 319.0
69.561704161 357.0
69.566628017 300.0
69.571551873 302.0
69.576475729 342.0
69.581399585 330.0
69.586323441 317.0
69.591247297 339.0
69.596171153 315.0
69.601095009 336.0
69.606018865 313.0
69.610942721 314.0
69.615866577 267.0
69.620790433 294.0
69.625714289 318.0
69.630638146 326.0
69.635562002 298.0
69.640485858 310.0
69.645409714 329.0
69.650333570 290.0
69.655257426 321.0
69.660181282 293.0
69.665105138 304.0
69.670028994 270.0
69.674952850 292.0
69.679876706 305.0
69.684800562 306.0
69.689724418 303.0
69.694648274 288.0
69.699572130 290.0
69.704495986 313.0
69.709419842 266.0
69.714343698 278.0
69.719267554 267.0
69.724191410 290.0
69.729115266 271.0
69.734039122 300.0
69.738962978 259.0
69.743886834 239.0
69.748810690 309.0
69.753734546 275.0
69.758658402 291.0
69.763582258 274.0
69.768506114 272.0
69.773429970 269.0
69.778353826 282.0
69.783277682 271.0
69.788201538 227.0
69.793125394 288.0
69.798049250 283.0
69.802973106 267.0
69.807896962 261.0
69.812820818 300.0
69.817744674 285.0
69.822668530 221.0
69.827592386 265.0
69.832516242 229.0
69.837440098 256.0
69.842363954 271.0
69.847287810 230.0
69.852211666 259.0
69.857135522 215.0
69.862059378 234.0
69.866983234 273.0
69.871907090 280.0
69.876830946 227.0
69.881754802 231.0
69.886678658 258.0
69.891602514 263.0
69.896526370 257.0
69.901450226 214.0
69.906374082 222.0
69.911297938 219.0
69.916221794 240.0
69.921145650 216.0
69.926069506 217.0
69.930993362 224.0
69.935917218 217.0
69.940841074 259.0
69.945764930 210.0
69.950688786 262.0
69.955612642 223.0
69.960536498 255.0
69.965460354 214.0
69.970384210 228.0
69.975308066 207.0
69.980231922 222.0
69.985155778 199.0
69.990079634 200.0
69.995003490 214.0
69.999927347 222.0
70.004851203 230.0
70.009775059 209.0
70.014698915 238.0
70.019622771 225.0
70.024546627 234.0
70.029470483 222.0
70.034394339 223.0
70.039318195 205.0
70.044242051 211.0
70.049165907 216.0
70.054089763 211.0
70.059013619 214.0
70.063937475 222.0
70.068861331 211.0
70.073785187 206.0
70.078709043 210.0
70.083632899 224.0
70.088556755 221.0
70.093480611 200.0
70.098404467 230.0
70.103328323 175.0
70.108252179 213.0
70.113176035 205.0
70.118099891 195.0
70.123023747 198.0
70.127947603 189.0
70.132871459 200.0
70.137795315 196.0
70.142719171 203.0
70.147643027 221.0
70.152566883 207.0
70.157490739 236.0
70.162414595 188.0
70.167338451 209.0
70.172262307 196.0
70.177186163 188.0
70.182110019 194.0
70.187033875 204.0
70.191957731 200.0
70.196881587 201.0
70.201805443 220.0
70.206729299 178.0
70.211653155 193.0
70.216577011 186.0
70.221500867 210.0
70.226424723 193.0
70.231348579 205.0
70.236272435 227.0
70.241196291 204.0
70.246120147 198.0
70.251044003 203.0
70.255967859 198.0
70.260891715 198.0
70.265815571 178.0
70.270739427 181.0
70.275663283 227.0
70.280587139 192.0
70.285510995 208.0
70.290434851 230.0
70.295358707 205.0
70.300282563 184.0
70.305206419 212.0
70.310130275 191.0
70.315054131 165.0
70.319977987 164.0
70.324901843 196.0
70.329825699 208.0
70.334749555 199.0
70.339673411 195.0
70.344597267 177.0
70.349521123 204.0
70.354444979 189.0
70.359368835 194.0
70.364292691 189.0
70.369216548 228.0
70.374140404 202.0
70.379064260 178.0
70.383988116 171.0
70.388911972 170.0
70.393835828 198.0
70.398759684 192.0
70.403683540 196.0
70.408607396 167.0
70.413531252 196.0
70.418455108 176.0
70.423378964 199.0
70.428302820 199.0
70.433226676 184.0
70.438150532 192.0
70.443074388 199.0
70.447998244 185.0
70.452922100 165.0
70.457845956 199.0
70.462769812 194.0
70.467693668 187.0
70.472617524 181.0
70.477541380 181.0
70.482465236 198.0
70.487389092 177.0
70.492312948 176.0
70.497236804 185.0
70.502160660 175.0
70.507084516 210.0
70.512008372 203.0
70.516932228 201.0
70.521856084 185.0
70.526779940 180.0
70.531703796 179.0
70.536627652 176.0
70.541551508 204.0
70.546475364 195.0
70.551399220 193.0
70.556323076 176.0
70.561246932 194.0
70.566170788 173.0
70.571094644 169.0
70.576018500 189.0
70.580942356 174.0
70.585866212 177.0
70.590790068 177.0
70.595713924 192.0
70.600637780 184.0
70.605561636 186.0
70.610485492 199.0
70.615409348 182.0
70.620333204 187.0
70.625257060 180.0
70.630180916 199.0
70.635104772 193.0
70.640028628 183.0
70.644952484 182.0
70.649876340 169.0
70.654800196 169.0
70.659724052 181.0
70.664647908 197.0
70.669571764 161.0
70.674495620 170.0
70.679419476 211.0
70.684343332 160.0
70.689267188 198.0
70.694191044 196.0
70.699114900 174.0
70.704038756 171.0
70.708962612 168.0
70.713886468 185.0
70.718810324 183.0
70.723734180 174.0
70.728658036 195.0
70.733581892 194.0
70.738505748 179.0
70.743429605 212.0
70.748353461 187.0
70.753277317 187.0
70.758201173 175.0
70.763125029 165.0
70.768048885 168.0
70.772972741 167.0
70.777896597 162.0
70.782820453 157.0
70.787744309 171.0
70.792668165 183.0
70.797592021 152.0
70.802515877 178.0
70.807439733 156.0
70.812363589 162.0
70.817287445 195.0
70.822211301 180.0
70.827135157 168.0
70.832059013 166.0
70.836982869 178.0
70.841906725 189.0
70.846830581 166.0
70.851754437 179.0
70.856678293 160.0
70.861602149 160.0
70.866526005 148.0
70.871449861 174.0
70.876373717 161.0
70.881297573 171.0
70.886221429 173.0
70.891145285 178.0
70.896069141 175.0
70.900992997 164.0
70.905916853 178.0
70.910840709 183.0
70.915764565 170.0
70.920688421 156.0
70.925612277 183.0
70.930536133 195.0
70.935459989 161.0
70.940383845 183.0
70.945307701 160.0
70.950231557 160.0
70.955155413 175.0
70.960079269 154.0
70.965003125 164.0
70.969926981 171.0
70.974850837 167.0
70.979774693 169.0
70.984698549 182.0
70.989622405 170.0
70.994546261 178.0
70.999470117 184.0
71.004393973 161.0
71.009317829 154.0
71.014241685 160.0
71.019165541 179.0
71.024089397 188.0
71.029013253 147.0
71.033937109 164.0
71.038860965 165.0
71.043784821 170.0
71.048708677 169.0
71.053632533 165.0
71.058556389 153.0
71.063480245 186.0
71.068404101 155.0
71.073327957 159.0
71.078251813 165.0
71.083175669 185.0
71.088099525 161.0
71.093023381 168.0
71.097947237 158.0
71.102871093 158.0
71.107794949 160.0
71.112718806 160.0
71.117642662 149.0
71.122566518 160.0
71.127490374 154.0
71.132414230 166.0
71.137338086 152.0
71.142261942 175.0
71.147185798 166.0
71.152109654 157.0
71.157033510 174.0
71.161957366 164.0
71.166881222 180.0
71.171805078 145.0
71.176728934 191.0
71.181652790 193.0
71.186576646 159.0
71.191500502 171.0
71.196424358 179.0
71.201348214 162.0
71.206272070 185.0
71.211195926 164.0
71.216119782 152.0
71.221043638 179.0
71.225967494 200.0
71.230891350 180.0
71.235815206 171.0
71.240739062 160.0
71.245662918 160.0
71.250586774 175.0
71.255510630 180.0
71.260434486 183.0
71.265358342 164.0
71.270282198 142.0
71.275206054 146.0
71.280129910 166.0
71.285053766 164.0
71.289977622 157.0
71.294901478 159.0
71.299825334 162.0
71.304749190 154.0
71.309673046 177.0
71.314596902 153.0
71.319520758 178.0
71.324444614 161.0
71.329368470 172.0
71.334292326 162.0
71.339216182 151.0
71.344140038 138.0
71.349063894 152.0
71.353987750 163.0
71.358911606 172.0
71.363835462 144.0
71.368759318 170.0
71.373683174 164.0
71.378607030 175.0
71.383530886 184.0
71.388454742 162.0
71.393378598 170.0
71.398302454 174.0
71.403226310 162.0
71.408150166 176.0
71.413074022 162.0
71.417997878 152.0
71.422921734 154.0
71.427845590 171.0
71.432769446 153.0
71.437693302 149.0
71.442617158 176.0
71.447541014 161.0
71.452464870 182.0
71.457388726 156.0
71.462312582 141.0
71.467236438 156.0
71.472160294 155.0
71.477084150 164.0
71.482008007 194.0
71.486931863 138.0
71.491855719 133.0
71.496779575 160.0
71.501703431 162.0
71.506627287 150.0
71.511551143 158.0
71.516474999 141.0
71.521398855 163.0
71.526322711 146.0
71.531246567 149.0
71.536170423 160.0
71.541094279 177.0
71.546018135 177.0
71.550941991 156.0
71.555865847 140.0
71.560789703 176.0
71.565713559 177.0
71.570637415 197.0
71.575561271 176.0
71.580485127 150.0
71.585408983 165.0
71.590332839 164.0
71.595256695 161.0
71.600180551 167.0
71.605104407 169.0
71.610028263 156.0
71.614952119 159.0
71.619875975 159.0
71.624799831 160.0
71.629723687 198.0
71.634647543 147.0
71.639571399 182.0
71.644495255 172.0
71.649419111 142.0
71.654342967 147.0
71.659266823 163.0
71.664190679 152.0
71.669114535 147.0
71.674038391 145.0
71.678962247 158.0
71.683886103 150.0
71.688809959 159.0
71.693733815 149.0
71.698657671 161.0
71.703581527 181.0
71.708505383 173.0
71.713429239 152.0
71.718353095 163.0
71.723276951 159.0
71.728200807 149.0
71.733124663 160.0
71.738048519 139.0
71.742972375 136.0
71.747896231 159.0
71.752820087 143.0
71.757743943 146.0
71.762667799 132.0
71.767591655 170.0
71.772515511 161.0
71.777439367 154.0
71.782363223 157.0
71.787287079 151.0
71.792210935 169.0
71.797134791 155.0
71.802058647 179.0
71.806982503 161.0
71.811906359 150.0
71.816830215 164.0
71.821754071 140.0
71.826677927 154.0
71.831601783 175.0
71.836525639 154.0
71.841449495 151.0
71.846373351 165.0
71.851297208 135.0
71.856221064 149.0
71.861144920 148.0
71.866068776 154.0
71.870992632 158.0
71.875916488 158.0
71.880840344 166.0
71.885764200 145.0
71.890688056 151.0
71.895611912 152.0
71.900535768 154.0
71.905459624 141.0
71.910383480 148.0
71.915307336 170.0
71.920231192 143.0
71.925155048 163.0
71.930078904 144.0
71.935002760 126.0
71.939926616 149.0
71.944850472 165.0
71.949774328 155.0
71.954698184 156.0
71.959622040 137.0
71.964545896 165.0
71.969469752 151.0
71.974393608 145.0
71.979317464 183.0
71.984241320 146.0
71.989165176 143.0
71.994089032 145.0
71.999012888 156.0
72.003936744 147.0
72.008860600 161.0
72.013784456 170.0
72.018708312 146.0
72.023632168 156.0
72.028556024 156.0
72.033479880 151.0
72.038403736 137.0
72.043327592 138.0
72.048251448 164.0
72.053175304 153.0
72.058099160 148.0
72.063023016 146.0
72.067946872 159.0
72.072870728 137.0
72.077794584 146.0
72.082718440 159.0
72.087642296 150.0
72.092566152 142.0
72.097490008 152.0
72.102413864 161.0
72.107337720 157.0
72.112261576 163.0
72.117185432 149.0
72.122109288 138.0
72.127033144 151.0
72.131957000 154.0
72.136880856 140.0
72.141804712 160.0
72.146728568 146.0
72.151652424 141.0
72.156576280 157.0
72.161500136 156.0
72.166423992 153.0
72.171347848 124.0
72.176271704 162.0
72.181195560 144.0
72.186119416 159.0
72.191043272 147.0
72.195967128 148.0
72.200890984 161.0
72.205814840 155.0
72.210738696 170.0
72.215662552 146.0
72.220586409 139.0
72.225510265 153.0
72.230434121 143.0
72.235357977 133.0
72.240281833 158.0
72.245205689 146.0
72.250129545 138.0
72.255053401 162.0
72.259977257 150.0
72.264901113 146.0
72.269824969 150.0
72.274748825 127.0
72.279672681 144.0
72.284596537 163.0
72.289520393 164.0
72.294444249 151.0
72.299368105 152.0
72.304291961 138.0
72.309215817 161.0
72.314139673 137.0
72.319063529 153.0
72.323987385 162.0
72.328911241 147.0
72.333835097 155.0
72.338758953 150.0
72.343682809 129.0
72.348606665 156.0
72.353530521 143.0
72.358454377 160.0
72.363378233 153.0
72.368302089 155.0
72.373225945 133.0
72.378149801 129.0
72.383073657 151.0
72.387997513 154.0
72.392921369 135.0
72.397845225 149.0
72.402769081 163.0
72.407692937 155.0
72.412616793 137.0
72.417540649 152.0
72.422464505 132.0
72.427388361 149.0
72.432312217 137.0
72.437236073 149.0
72.442159929 161.0
72.447083785 145.0
72.452007641 150.0
72.456931497 144.0
72.461855353 154.0
72.466779209 158.0
72.471703065 153.0
72.476626921 140.0
72.481550777 121.0
72.486474633 158.0
72.491398489 145.0
72.496322345 132.0
72.501246201 148.0
72.506170057 146.0
72.511093913 155.0
72.516017769 158.0
72.520941625 145.0
72.525865481 146.0
72.530789337 130.0
72.535713193 135.0
72.540637049 164.0
72.545560905 145.0
72.550484761 158.0
72.555408617 162.0
72.560332473 170.0
72.565256329 162.0
72.570180185 153.0
72.575104041 155.0
72.580027897 165.0
72.584951753 163.0
72.589875609 155.0
72.594799466 152.0
72.599723322 166.0
72.604647178 143.0
72.609571034 137.0
72.614494890 151.0
72.619418746 143.0
72.624342602 139.0
72.629266458 153.0
72.634190314 124.0
72.639114170 129.0
72.644038026 143.0
72.648961882 155.0
72.653885738 145.0
72.658809594 128.0
72.663733450 187.0
72.668657306 154.0
72.673581162 129.0
72.678505018 170.0
72.683428874 156.0
72.688352730 142.0
72.693276586 128.0
72.698200442 173.0
72.703124298 168.0
72.708048154 145.0
72.712972010 157.0
72.717895866 165.0
72.722819722 147.0
72.727743578 147.0
72.732667434 132.0
72.737591290 141.0
72.742515146 130.0
72.747439002 145.0
72.752362858 135.0
72.757286714 133.0
72.762210570 147.0
72.767134426 146.0
72.772058282 134.0
72.776982138 140.0
72.781905994 160.0
72.786829850 147.0
72.791753706 148.0
72.796677562 143.0
72.801601418 122.0
72.806525274 158.0
72.811449130 151.0
72.816372986 181.0
72.821296842 145.0
72.826220698 140.0
72.831144554 137.0
72.836068410 160.0
72.840992266 135.0
72.845916122 145.0
72.850839978 135.0
72.855763834 138.0
72.860687690 134.0
72.865611546 141.0
72.870535402 144.0
72.875459258 139.0
72.880383114 123.0
72.885306970 125.0
72.890230826 171.0
72.895154682 144.0
72.900078538 145.0
72.905002394 152.0
72.909926250 142.0
72.914850106 154.0
72.919773962 166.0
72.924697818 138.0
72.929621674 137.0
72.934545530 158.0
72.939469386 131.0
72.944393242 155.0
72.949317098 142.0
72.954240954 155.0
72.959164810 162.0
72.964088667 144.0
72.969012523 123.0
72.973936379 148.0
72.978860235 161.0
72.983784091 132.0
72.988707947 142.0
72.993631803 147.0
72.998555659 133.0
73.003479515 146.0
73.008403371 152.0
73.013327227 148.0
73.018251083 148.0
73.023174939 149.0
73.028098795 140.0
73.033022651 154.0
73.037946507 137.0
73.042870363 134.0
73.047794219 161.0
73.052718075 144.0
73.057641931 149.0
73.062565787 155.0
73.067489643 151.0
73.072413499 131.0
73.077337355 137.0
73.082261211 147.0
73.087185067 140.0
73.092108923 150.0
73.097032779 161.0
73.101956635 153.0
73.106880491 153.0
73.111804347 156.0
73.116728203 137.0
73.121652059 147.0
73.126575915 142.0
73.131499771 146.0
73.136423627 148.0
73.141347483 144.0
73.146271339 157.0
73.151195195 124.0
73.156119051 132.0
73.161042907 145.0
73.165966763 172.0
73.170890619 153.0
73.175814475 133.0
73.180738331 156.0
73.185662187 164.0
73.190586043 142.0
73.195509899 141.0
73.200433755 123.0
73.205357611 155.0
73.210281467 147.0
73.215205323 142.0
73.220129179 134.0
73.225053035 136.0
73.229976891 161.0
73.234900747 143.0
73.239824603 159.0
73.244748459 149.0
73.249672315 124.0
73.254596171 143.0
73.259520027 134.0
73.264443883 147.0
73.269367739 131.0
73.274291595 131.0
73.279215451 131.0
73.284139307 138.0
73.289063163 147.0
73.293987019 155.0
73.298910875 142.0
73.303834731 141.0
73.308758587 155.0
73.313682443 145.0
73.318606299 145.0
73.323530155 124.0
73.328454011 165.0
73.333377868 139.0
73.338301724 144.0
73.343225580 142.0
73.348149436 156.0
73.353073292 136.0
73.357997148 130.0
73.362921004 148.0
73.367844860 127.0
73.372768716 138.0
73.377692572 145.0
73.382616428 137.0
73.387540284 138.0
73.392464140 129.0
73.397387996 146.0
73.402311852 159.0
73.407235708 133.0
73.412159564 137.0
73.417083420 153.0
73.422007276 144.0
73.426931132 126.0
73.431854988 158.0
73.436778844 132.0
73.441702700 152.0
73.446626556 134.0
73.451550412 150.0
73.456474268 137.0
73.461398124 137.0
73.466321980 146.0
73.471245836 146.0
73.476169692 143.0
73.481093548 149.0
73.486017404 161.0
73.490941260 111.0
73.495865116 136.0
73.500788972 167.0
73.505712828 140.0
73.510636684 133.0
73.515560540 150.0
73.520484396 128.0
73.525408252 136.0
73.530332108 132.0
73.535255964 146.0
73.540179820 134.0
73.545103676 141.0
73.550027532 147.0
73.554951388 144.0
73.559875244 125.0
73.564799100 144.0
73.569722956 152.0
73.574646812 146.0
73.579570668 165.0
73.584494524 152.0
73.589418380 148.0
73.594342236 156.0
73.599266092 158.0
73.604189948 134.0
73.609113804 140.0
73.614037660 148.0
73.618961516 150.0
73.623885372 121.0
73.628809228 165.0
73.633733084 138.0
73.638656940 155.0
73.643580796 140.0
73.648504652 132.0
73.653428508 144.0
73.658352364 141.0
73.663276220 146.0
73.668200076 148.0
73.673123932 154.0
73.678047788 154.0
73.682971644 131.0
73.687895500 143.0
73.692819356 145.0
73.697743212 158.0
73.702667069 146.0
73.707590925 157.0
73.712514781 146.0
73.717438637 146.0
73.722362493 143.0
73.727286349 150.0
73.732210205 125.0
73.737134061 165.0
73.742057917 139.0
73.746981773 150.0
73.751905629 144.0
73.756829485 139.0
73.761753341 137.0
73.766677197 139.0
73.771601053 136.0
73.776524909 141.0
73.781448765 140.0
73.786372621 132.0
73.791296477 136.0
73.796220333 144.0
73.801144189 133.0
73.806068045 152.0
73.810991901 120.0
73.815915757 140.0
73.820839613 149.0
73.825763469 131.0
73.830687325 134.0
73.835611181 161.0
73.840535037 164.0
73.845458893 146.0
73.850382749 136.0
73.855306605 129.0
73.860230461 130.0
73.865154317 117.0
73.870078173 133.0
73.875002029 132.0
73.879925885 130.0
73.884849741 157.0
73.889773597 142.0
73.894697453 142.0
73.899621309 148.0
73.904545165 161.0
73.909469021 123.0
73.914392877 154.0
73.919316733 113.0
73.924240589 146.0
73.929164445 126.0
73.934088301 145.0
73.939012157 148.0
73.943936013 151.0
73.948859869 141.0
73.953783725 151.0
73.958707581 153.0
73.963631437 133.0
73.968555293 128.0
73.973479149 140.0
73.978403005 139.0
73.983326861 167.0
73.988250717 142.0
73.993174573 113.0
73.998098429 138.0
74.003022285 151.0
74.007946141 134.0
74.012869997 149.0
74.017793853 148.0
74.022717709 150.0
74.027641565 141.0
74.032565421 144.0
74.037489277 127.0
74.042413133 136.0
74.047336989 132.0
74.052260845 143.0
74.057184701 155.0
74.062108557 152.0
74.067032413 134.0
74.071956270 147.0
74.076880126 131.0
74.081803982 143.0
74.086727838 154.0
74.091651694 133.0
74.096575550 144.0
74.101499406 146.0
74.106423262 134.0
74.111347118 129.0
74.116270974 144.0
74.121194830 125.0
74.126118686 147.0
74.131042542 143.0
74.135966398 129.0
74.140890254 128.0
74.145814110 130.0
74.150737966 120.0
74.155661822 145.0
74.160585678 152.0
74.165509534 149.0
74.170433390 138.0
74.175357246 140.0
74.180281102 141.0
74.185204958 154.0
74.190128814 132.0
74.195052670 142.0
74.199976526 143.0
74.204900382 132.0
74.209824238 148.0
74.214748094 165.0
74.219671950 147.0
74.224595806 147.0
74.229519662 136.0
74.234443518 140.0
74.239367374 131.0
74.244291230 136.0
74.249215086 137.0
74.254138942 127.0
74.259062798 143.0
74.263986654 131.0
74.268910510 143.0
74.273834366 137.0
74.278758222 142.0
74.283682078 143.0
74.288605934 149.0
74.293529790 146.0
74.298453646 137.0
74.303377502 155.0
74.308301358 124.0
74.313225214 129.0
74.318149070 155.0
74.323072926 137.0
74.327996782 146.0
74.332920638 143.0
74.337844494 142.0
74.342768350 142.0
74.347692206 151.0
74.352616062 120.0
74.357539918 162.0
74.362463774 143.0
74.367387630 152.0
74.372311486 134.0
74.377235342 142.0
74.382159198 139.0
74.387083054 148.0
74.392006910 136.0
74.396930766 145.0
74.401854622 147.0
74.406778478 149.0
74.411702334 131.0
74.416626190 138.0
74.421550046 139.0
74.426473902 137.0
74.431397758 132.0
74.436321614 137.0
74.441245470 158.0
74.446169327 139.0
74.451093183 138.0
74.456017039 119.0
74.460940895 151.0
74.465864751 156.0
74.470788607 116.0
74.475712463 152.0
74.480636319 135.0
74.485560175 146.0
74.490484031 161.0
74.495407887 151.0
74.500331743 141.0
74.505255599 139.0
74.510179455 141.0
74.515103311 140.0
74.520027167 141.0
74.524951023 136.0
74.529874879 128.0
74.534798735 153.0
74.539722591 133.0
74.544646447 140.0
74.549570303 141.0
74.554494159 153.0
74.559418015 149.0
74.564341871 142.0
74.569265727 139.0
74.574189583 158.0
74.579113439 134.0
74.584037295 164.0
74.588961151 130.0
74.593885007 131.0
74.598808863 125.0
74.603732719 128.0
74.608656575 149.0
74.613580431 157.0
74.618504287 129.0
74.623428143 135.0
74.628351999 130.0
74.633275855 143.0
74.638199711 139.0
74.643123567 144.0
74.648047423 143.0
74.652971279 143.0
74.657895135 123.0
74.662818991 154.0
74.667742847 129.0
74.672666703 113.0
74.677590559 137.0
74.682514415 137.0
74.687438271 143.0
74.692362127 138.0
74.697285983 134.0
74.702209839 143.0
74.707133695 152.0
74.712057551 135.0
74.716981407 148.0
74.721905263 123.0
74.726829119 118.0
74.731752975 144.0
74.736676831 142.0
74.741600687 141.0
74.746524543 134.0
74.751448399 130.0
74.756372255 127.0
74.761296111 150.0
74.766219967 134.0
74.771143823 162.0
74.776067679 135.0
74.780991535 145.0
74.785915391 144.0
74.790839247 127.0
74.795763103 136.0
74.800686959 133.0
74.805610815 149.0
74.810534671 145.0
74.815458528 126.0
74.820382384 128.0
74.825306240 140.0
74.830230096 127.0
74.835153952 132.0
74.840077808 120.0
74.845001664 128.0
74.849925520 150.0
74.854849376 148.0
74.859773232 154.0
74.864697088 154.0
74.869620944 133.0
74.874544800 156.0
74.879468656 141.0
74.884392512 151.0
74.889316368 159.0
74.894240224 154.0
74.899164080 133.0
74.904087936 138.0
74.909011792 141.0
74.913935648 132.0
74.918859504 148.0
74.923783360 151.0
74.928707216 143.0
74.933631072 133.0
74.938554928 143.0
74.943478784 142.0
74.948402640 129.0
74.953326496 142.0
74.958250352 149.0
74.963174208 143.0
74.968098064 125.0
74.973021920 124.0
74.977945776 131.0
74.982869632 124.0
74.987793488 144.0
74.992717344 140.0
74.997641200 133.0
