35.002061930 67.0
35.006985786 58.0
35.011909642 59.0
35.016833498 48.0
35.021757354 60.0
35.026681210 73.0
35.031605066 57.0
35.036528922 56.0
35.041452778 56.0
35.046376634 51.0
35.051300490 61.0
35.056224346 49.0
35.061148202 59.0
35.066072058 65.0
35.070995914 54.0
35.075919770 54.0
35.080843626 66.0
35.085767482 52.0
35.090691338 54.0
35.095615194 61.0
35.100539050 48.0
35.105462906 57.0
35.110386762 52.0
35.115310618 66.0
35.120234474 57.0
35.125158330 54.0
35.130082186 60.0
35.135006042 55.0
35.139929898 62.0
35.144853754 60.0
35.149777610 66.0
35.154701466 60.0
35.159625322 64.0
35.164549178 66.0
35.169473034 62.0
35.174396890 61.0
35.179320746 53.0
35.184244602 52.0
35.189168458 51.0
35.194092314 48.0
35.199016170 51.0
35.203940026 57.0
35.208863882 61.0
35.213787738 55.0
35.218711594 56.0
35.223635450 55.0
35.228559306 65.0
35.233483162 63.0
35.238407018 60.0
35.243330874 54.0
35.248254730 67.0
35.253178587 62.0
35.258102443 58.0
35.263026299 65.0
35.267950155 59.0
35.272874011 61.0
35.277797867 62.0
35.282721723 76.0
35.287645579 69.0
35.292569435 56.0
35.297493291 59.0
35.302417147 52.0
35.307341003 53.0
35.312264859 67.0
35.317188715 60.0
35.322112571 75.0
35.327036427 49.0
35.331960283 70.0
35.336884139 72.0
35.341807995 65.0
35.346731851 65.0
35.351655707 54.0
35.356579563 69.0
35.361503419 59.0
35.366427275 63.0
35.371351131 68.0
35.376274987 51.0
35.381198843 73.0
35.386122699 57.0
35.391046555 65.0
35.395970411 64.0
35.400894267 64.0
35.405818123 61.0
35.410741979 50.0
35.415665835 46.0
35.420589691 61.0
35.425513547 81.0
35.430437403 55.0
35.435361259 61.0
35.440285115 52.0
35.445208971 68.0
35.450132827 62.0
35.455056683 65.0
35.459980539 67.0
35.464904395 70.0
35.469828251 77.0
35.474752107 54.0
35.479675963 53.0
35.484599819 72.0
35.489523675 53.0
35.494447531 68.0
35.499371387 54.0
35.504295243 74.0
35.509219099 68.0
35.514142955 60.0
35.519066811 62.0
35.523990667 53.0
35.528914523 63.0
35.533838379 61.0
35.538762235 52.0
35.543686091 55.0
35.548609947 61.0
35.553533803 57.0
35.558457659 67.0
35.563381515 57.0
35.568305371 65.0
35.573229227 52.0
35.578153083 60.0
35.583076939 64.0
35.588000795 52.0
35.592924651 52.0
35.597848507 63.0
35.602772363 65.0
35.607696219 52.0
35.612620075 63.0
35.617543931 39.0
35.622467787 55.0
35.627391643 56.0
35.632315499 54.0
35.637239355 67.0
35.642163211 64.0
35.647087067 63.0
35.652010923 47.0
35.656934779 45.0
35.661858635 61.0
35.666782491 77.0
35.671706347 70.0
35.676630203 63.0
35.681554059 53.0
35.686477915 76.0
35.691401771 59.0
35.696325627 68.0
35.701249483 48.0
35.706173339 59.0
35.711097195 51.0
35.716021051 57.0
35.720944907 65.0
35.725868763 60.0
35.730792619 58.0
35.735716475 47.0
35.740640331 57.0
35.745564187 70.0
35.750488043 48.0
35.755411900 55.0
35.760335756 55.0
35.765259612 61.0
35.770183468 60.0
35.775107324 52.0
35.780031180 63.0
35.784955036 58.0
35.789878892 59.0
35.794802748 59.0
35.799726604 55.0
35.804650460 45.0
35.809574316 49.0
35.814498172 49.0
35.819422028 51.0
35.824345884 53.0
35.829269740 60.0
35.834193596 54.0
35.839117452 61.0
35.844041308 55.0
35.848965164 72.0
35.853889020 69.0
35.858812876 69.0
35.863736732 52.0
35.868660588 57.0
35.873584444 53.0
35.878508300 45.0
35.883432156 46.0
35.888356012 55.0
35.893279868 70.0
35.898203724 56.0
35.903127580 64.0
35.908051436 51.0
35.912975292 49.0
35.917899148 59.0
35.922823004 46.0
35.927746860 65.0
35.932670716 47.0
35.937594572 53.0
35.942518428 54.0
35.947442284 57.0
35.952366140 55.0
35.957289996 59.0
35.962213852 55.0
35.967137708 55.0
35.972061564 53.0
35.976985420 64.0
35.981909276 50.0
35.986833132 64.0
35.991756988 62.0
35.996680844 54.0
36.001604700 51.0
36.006528556 67.0
36.011452412 68.0
36.016376268 47.0
36.021300124 59.0
36.026223980 68.0
36.031147836 57.0
36.036071692 64.0
36.040995548 62.0
36.045919404 66.0
36.050843260 55.0
36.055767116 58.0
36.060690972 54.0
36.065614828 40.0
36.070538684 67.0
36.075462540 52.0
36.080386396 67.0
36.085310252 65.0
36.090234108 52.0
36.095157964 54.0
36.100081820 63.0
36.105005676 53.0
36.109929532 55.0
36.114853388 48.0
36.119777244 63.0
36.124701100 54.0
36.129624956 62.0
36.134548812 65.0
36.139472668 59.0
36.144396524 53.0
36.149320380 47.0
36.154244236 58.0
36.159168092 54.0
36.164091948 56.0
36.169015804 58.0
36.173939660 49.0
36.178863516 42.0
36.183787372 59.0
36.188711228 73.0
36.193635084 54.0
36.198558940 56.0
36.203482796 51.0
36.208406652 57.0
36.213330508 45.0
36.218254364 52.0
36.223178220 56.0
36.228102076 56.0
36.233025932 54.0
36.237949788 60.0
36.242873644 69.0
36.247797500 55.0
36.252721357 50.0
36.257645213 54.0
36.262569069 53.0
36.267492925 59.0
36.272416781 57.0
36.277340637 55.0
36.282264493 58.0
36.287188349 51.0
36.292112205 54.0
36.297036061 63.0
36.301959917 55.0
36.306883773 64.0
36.311807629 55.0
36.316731485 54.0
36.321655341 56.0
36.326579197 61.0
36.331503053 71.0
36.336426909 72.0
36.341350765 70.0
36.346274621 48.0
36.351198477 53.0
36.356122333 46.0
36.361046189 53.0
36.365970045 65.0
36.370893901 56.0
36.375817757 53.0
36.380741613 52.0
36.385665469 57.0
36.390589325 64.0
36.395513181 46.0
36.400437037 64.0
36.405360893 52.0
36.410284749 70.0
36.415208605 57.0
36.420132461 72.0
36.425056317 62.0
36.429980173 56.0
36.434904029 51.0
36.439827885 74.0
36.444751741 68.0
36.449675597 53.0
36.454599453 58.0
36.459523309 61.0
36.464447165 45.0
36.469371021 62.0
36.474294877 53.0
36.479218733 61.0
36.484142589 58.0
36.489066445 56.0
36.493990301 47.0
36.498914157 51.0
36.503838013 62.0
36.508761869 64.0
36.513685725 61.0
36.518609581 66.0
36.523533437 58.0
36.528457293 68.0
36.533381149 71.0
36.538305005 59.0
36.543228861 66.0
36.548152717 55.0
36.553076573 58.0
36.558000429 73.0
36.562924285 63.0
36.567848141 62.0
36.572771997 62.0
36.577695853 53.0
36.582619709 60.0
36.587543565 61.0
36.592467421 72.0
36.597391277 54.0
36.602315133 59.0
36.607238989 62.0
36.612162845 56.0
36.617086701 62.0
36.622010557 62.0
36.626934413 57.0
36.631858269 54.0
36.636782125 59.0
36.641705981 59.0
36.646629837 67.0
36.651553693 49.0
36.656477549 63.0
36.661401405 55.0
36.666325261 58.0
36.671249117 69.0
36.676172973 61.0
36.681096829 59.0
36.686020685 64.0
36.690944541 44.0
36.695868397 62.0
36.700792253 55.0
36.705716109 54.0
36.710639965 58.0
36.715563821 73.0
36.720487677 62.0
36.725411533 61.0
36.730335389 54.0
36.735259245 61.0
36.740183101 71.0
36.745106957 62.0
36.750030813 68.0
36.754954670 64.0
36.759878526 60.0
36.764802382 77.0
36.769726238 66.0
36.774650094 63.0
36.779573950 51.0
36.784497806 54.0
36.789421662 55.0
36.794345518 70.0
36.799269374 67.0
36.804193230 58.0
36.809117086 53.0
36.814040942 55.0
36.818964798 48.0
36.823888654 62.0
36.828812510 56.0
36.833736366 58.0
36.838660222 62.0
36.843584078 49.0
36.848507934 70.0
36.853431790 61.0
36.858355646 60.0
36.863279502 43.0
36.868203358 54.0
36.873127214 71.0
36.878051070 53.0
36.882974926 66.0
36.887898782 65.0
36.892822638 47.0
36.897746494 72.0
36.902670350 76.0
36.907594206 63.0
36.912518062 59.0
36.917441918 62.0
36.922365774 55.0
36.927289630 64.0
36.932213486 50.0
36.937137342 75.0
36.942061198 61.0
36.946985054 56.0
36.951908910 52.0
36.956832766 55.0
36.961756622 65.0
36.966680478 69.0
36.971604334 56.0
36.976528190 64.0
36.981452046 58.0
36.986375902 56.0
36.991299758 65.0
36.996223614 57.0
37.001147470 73.0
37.006071326 62.0
37.010995182 72.0
37.015919038 65.0
37.020842894 54.0
37.025766750 53.0
37.030690606 80.0
37.035614462 47.0
37.040538318 78.0
37.045462174 61.0
37.050386030 69.0
37.055309886 59.0
37.060233742 58.0
37.065157598 69.0
37.070081454 60.0
37.075005310 59.0
37.079929166 70.0
37.084853022 57.0
37.089776878 70.0
37.094700734 60.0
37.099624590 67.0
37.104548446 64.0
37.109472302 70.0
37.114396158 66.0
37.119320014 63.0
37.124243870 65.0
37.129167726 62.0
37.134091582 45.0
37.139015438 55.0
37.143939294 68.0
37.148863150 63.0
37.153787006 65.0
37.158710862 63.0
37.163634718 65.0
37.168558574 61.0
37.173482430 68.0
37.178406286 66.0
37.183330142 60.0
37.188253998 65.0
37.193177854 68.0
37.198101710 47.0
37.203025566 49.0
37.207949422 65.0
37.212873278 67.0
37.217797134 49.0
37.222720990 54.0
37.227644846 52.0
37.232568702 59.0
37.237492558 59.0
37.242416414 69.0
37.247340270 49.0
37.252264127 62.0
37.257187983 57.0
37.262111839 70.0
37.267035695 48.0
37.271959551 68.0
37.276883407 71.0
37.281807263 55.0
37.286731119 60.0
37.291654975 72.0
37.296578831 60.0
37.301502687 59.0
37.306426543 59.0
37.311350399 57.0
37.316274255 69.0
37.321198111 56.0
37.326121967 68.0
37.331045823 66.0
37.335969679 52.0
37.340893535 55.0
37.345817391 59.0
37.350741247 52.0
37.355665103 65.0
37.360588959 74.0
37.365512815 65.0
37.370436671 83.0
37.375360527 77.0
37.380284383 66.0
37.385208239 63.0
37.390132095 69.0
37.395055951 78.0
37.399979807 83.0
37.404903663 72.0
37.409827519 84.0
37.414751375 80.0
37.419675231 96.0
37.424599087 127.0
37.429522943 144.0
37.434446799 165.0
37.439370655 158.0
37.444294511 146.0
37.449218367 148.0
37.454142223 169.0
37.459066079 158.0
37.463989935 123.0
37.468913791 92.0
37.473837647 124.0
37.478761503 81.0
37.483685359 87.0
37.488609215 73.0
37.493533071 62.0
37.498456927 73.0
37.503380783 78.0
37.508304639 70.0
37.513228495 68.0
37.518152351 74.0
37.523076207 76.0
37.528000063 73.0
37.532923919 80.0
37.537847775 63.0
37.542771631 60.0
37.547695487 62.0
37.552619343 65.0
37.557543199 60.0
37.562467055 67.0
37.567390911 59.0
37.572314767 61.0
37.577238623 60.0
37.582162479 73.0
37.587086335 68.0
37.592010191 66.0
37.596934047 77.0
37.601857903 65.0
37.606781759 63.0
37.611705615 69.0
37.616629471 58.0
37.621553327 72.0
37.626477183 71.0
37.631401039 67.0
37.636324895 63.0
37.641248751 54.0
37.646172607 60.0
37.651096463 76.0
37.656020319 65.0
37.660944175 47.0
37.665868031 54.0
37.670791887 49.0
37.675715743 52.0
37.680639599 57.0
37.685563455 67.0
37.690487311 65.0
37.695411167 79.0
37.700335023 61.0
37.705258879 59.0
37.710182735 68.0
37.715106591 59.0
37.720030447 65.0
37.724954303 87.0
37.729878159 67.0
37.734802015 76.0
37.739725871 83.0
37.744649727 75.0
37.749573583 73.0
37.754497440 67.0
37.759421296 69.0
37.764345152 68.0
37.769269008 58.0
37.774192864 78.0
37.779116720 51.0
37.784040576 68.0
37.788964432 62.0
37.793888288 67.0
37.798812144 70.0
37.803736000 70.0
37.808659856 60.0
37.813583712 78.0
37.818507568 65.0
37.823431424 71.0
37.828355280 61.0
37.833279136 66.0
37.838202992 51.0
37.843126848 70.0
37.848050704 62.0
37.852974560 59.0
37.857898416 54.0
37.862822272 63.0
37.867746128 67.0
37.872669984 74.0
37.877593840 71.0
37.882517696 64.0
37.887441552 60.0
37.892365408 66.0
37.897289264 64.0
37.902213120 72.0
37.907136976 78.0
37.912060832 65.0
37.916984688 67.0
37.921908544 72.0
37.926832400 67.0
37.931756256 78.0
37.936680112 72.0
37.941603968 68.0
37.946527824 57.0
37.951451680 70.0
37.956375536 61.0
37.961299392 73.0
37.966223248 63.0
37.971147104 62.0
37.976070960 66.0
37.980994816 69.0
37.985918672 73.0
37.990842528 75.0
37.995766384 61.0
38.000690240 77.0
38.005614096 72.0
38.010537952 70.0
38.015461808 74.0
38.020385664 73.0
38.025309520 51.0
38.030233376 79.0
38.035157232 76.0
38.040081088 69.0
38.045004944 51.0
38.049928800 62.0
38.054852656 64.0
38.059776512 76.0
38.064700368 62.0
38.069624224 60.0
38.074548080 68.0
38.079471936 78.0
38.084395792 70.0
38.089319648 90.0
38.094243504 78.0
38.099167360 75.0
38.104091216 67.0
38.109015072 76.0
38.113938928 83.0
38.118862784 67.0
38.123786640 82.0
38.128710496 65.0
38.133634352 69.0
38.138558208 75.0
38.143482064 78.0
38.148405920 81.0
38.153329776 68.0
38.158253632 70.0
38.163177488 65.0
38.168101344 68.0
38.173025200 73.0
38.177949056 69.0
38.182872912 84.0
38.187796768 71.0
38.192720624 67.0
38.197644480 72.0
38.202568336 63.0
38.207492192 83.0
38.212416048 70.0
38.217339904 63.0
38.222263760 62.0
38.227187616 72.0
38.232111472 62.0
38.237035328 81.0
38.241959184 81.0
38.246883040 66.0
38.251806897 74.0
38.256730753 67.0
38.261654609 71.0
38.266578465 86.0
38.271502321 76.0
38.276426177 68.0
38.281350033 69.0
38.286273889 83.0
38.291197745 68.0
38.296121601 67.0
38.301045457 80.0
38.305969313 61.0
38.310893169 73.0
38.315817025 83.0
38.320740881 77.0
38.325664737 65.0
38.330588593 68.0
38.335512449 72.0
38.340436305 73.0
38.345360161 91.0
38.350284017 99.0
38.355207873 86.0
38.360131729 76.0
38.365055585 77.0
38.369979441 77.0
38.374903297 84.0
38.379827153 96.0
38.384751009 89.0
38.389674865 95.0
38.394598721 88.0
38.399522577 85.0
38.404446433 84.0
38.409370289 94.0
38.414294145 77.0
38.419218001 79.0
38.424141857 80.0
38.429065713 83.0
38.433989569 89.0
38.438913425 99.0
38.443837281 81.0
38.448761137 83.0
38.453684993 88.0
38.458608849 99.0
38.463532705 93.0
38.468456561 103.0
38.473380417 102.0
38.478304273 82.0
38.483228129 85.0
38.488151985 101.0
38.493075841 77.0
38.497999697 87.0
38.502923553 101.0
38.507847409 93.0
38.512771265 88.0
38.517695121 104.0
38.522618977 95.0
38.527542833 103.0
38.532466689 99.0
38.537390545 92.0
38.542314401 85.0
38.547238257 96.0
38.552162113 95.0
38.557085969 73.0
38.562009825 103.0
38.566933681 88.0
38.571857537 115.0
38.576781393 96.0
38.581705249 91.0
38.586629105 101.0
38.591552961 125.0
38.596476817 113.0
38.601400673 119.0
38.606324529 121.0
38.611248385 94.0
38.616172241 130.0
38.621096097 87.0
38.626019953 79.0
38.630943809 112.0
38.635867665 89.0
38.640791521 108.0
38.645715377 106.0
38.650639233 98.0
38.655563089 97.0
38.660486945 90.0
38.665410801 115.0
38.670334657 131.0
38.675258513 133.0
38.680182369 125.0
38.685106225 135.0
38.690030081 134.0
38.694953937 139.0
38.699877793 131.0
38.704801649 114.0
38.709725505 138.0
38.714649361 133.0
38.719573217 125.0
38.724497073 135.0
38.729420929 106.0
38.734344785 108.0
38.739268641 114.0
38.744192497 143.0
38.749116353 112.0
38.754040210 146.0
38.758964066 119.0
38.763887922 132.0
38.768811778 149.0
38.773735634 141.0
38.778659490 112.0
38.783583346 149.0
38.788507202 139.0
38.793431058 152.0
38.798354914 155.0
38.803278770 144.0
38.808202626 169.0
38.813126482 166.0
38.818050338 187.0
38.822974194 176.0
38.827898050 168.0
38.832821906 173.0
38.837745762 165.0
38.842669618 164.0
38.847593474 155.0
38.852517330 175.0
38.857441186 165.0
38.862365042 155.0
38.867288898 172.0
38.872212754 164.0
38.877136610 163.0
38.882060466 204.0
38.886984322 191.0
38.891908178 190.0
38.896832034 182.0
38.901755890 198.0
38.906679746 255.0
38.911603602 294.0
38.916527458 214.0
38.921451314 294.0
38.926375170 284.0
38.931299026 264.0
38.936222882 279.0
38.941146738 305.0
38.946070594 263.0
38.950994450 295.0
38.955918306 269.0
38.960842162 283.0
38.965766018 285.0
38.970689874 270.0
38.975613730 298.0
38.980537586 288.0
38.985461442 293.0
38.990385298 322.0
38.995309154 328.0
39.000233010 334.0
39.005156866 367.0
39.010080722 428.0
39.015004578 386.0
39.019928434 456.0
39.024852290 462.0
39.029776146 498.0
39.034700002 511.0
39.039623858 528.0
39.044547714 565.0
39.049471570 587.0
39.054395426 599.0
39.059319282 590.0
39.064243138 627.0
39.069166994 589.0
39.074090850 575.0
39.079014706 612.0
39.083938562 614.0
39.088862418 636.0
39.093786274 655.0
39.098710130 652.0
39.103633986 684.0
39.108557842 740.0
39.113481698 790.0
39.118405554 854.0
39.123329410 922.0
39.128253266 991.0
39.133177122 1136.0
39.138100978 1226.0
39.143024834 1311.0
39.147948690 1452.0
39.152872546 1548.0
39.157796402 1659.0
39.162720258 1846.0
39.167644114 1952.0
39.172567970 2032.0
39.177491826 2128.0
39.182415682 2247.0
39.187339538 2296.0
39.192263394 2441.0
39.197187250 2496.0
39.202111106 2560.0
39.207034962 2534.0
39.211958818 2663.0
39.216882674 2698.0
39.221806530 2640.0
39.226730386 2723.0
39.231654242 2654.0
39.236578098 2621.0
39.241501954 2628.0
39.246425810 2565.0
39.251349667 2614.0
39.256273523 2509.0
39.261197379 2473.0
39.266121235 2420.0
39.271045091 2328.0
39.275968947 2331.0
39.280892803 2329.0
39.285816659 2271.0
39.290740515 2065.0
39.295664371 2078.0
39.300588227 2111.0
39.305512083 1976.0
39.310435939 1931.0
39.315359795 1940.0
39.320283651 1860.0
39.325207507 1768.0
39.330131363 1714.0
39.335055219 1599.0
39.339979075 1548.0
39.344902931 1374.0
39.349826787 1374.0
39.354750643 1219.0
39.359674499 1223.0
39.364598355 1219.0
39.369522211 1066.0
39.374446067 1010.0
39.379369923 986.0
39.384293779 785.0
39.389217635 867.0
39.394141491 747.0
39.399065347 685.0
39.403989203 687.0
39.408913059 602.0
39.413836915 592.0
39.418760771 537.0
39.423684627 503.0
39.428608483 467.0
39.433532339 424.0
39.438456195 420.0
39.443380051 355.0
39.448303907 382.0
39.453227763 335.0
39.458151619 329.0
39.463075475 315.0
39.467999331 296.0
39.472923187 300.0
39.477847043 230.0
39.482770899 205.0
39.487694755 255.0
39.492618611 206.0
39.497542467 197.0
39.502466323 193.0
39.507390179 212.0
39.512314035 180.0
39.517237891 176.0
39.522161747 175.0
39.527085603 176.0
39.532009459 169.0
39.536933315 159.0
39.541857171 141.0
39.546781027 169.0
39.551704883 182.0
39.556628739 157.0
39.561552595 130.0
39.566476451 131.0
39.571400307 152.0
39.576324163 135.0
39.581248019 100.0
39.586171875 130.0
39.591095731 107.0
39.596019587 127.0
39.600943443 115.0
39.605867299 103.0
39.610791155 118.0
39.615715011 122.0
39.620638867 109.0
39.625562723 124.0
39.630486579 119.0
39.635410435 76.0
39.640334291 102.0
39.645258147 104.0
39.650182003 97.0
39.655105859 98.0
39.660029715 88.0
39.664953571 92.0
39.669877427 106.0
39.674801283 101.0
39.679725139 101.0
39.684648995 90.0
39.689572851 100.0
39.694496707 88.0
39.699420563 84.0
39.704344419 87.0
39.709268275 94.0
39.714192131 106.0
39.719115987 88.0
39.724039843 79.0
39.728963699 77.0
39.733887555 104.0
39.738811411 87.0
39.743735267 87.0
39.748659123 90.0
39.753582980 74.0
39.758506836 87.0
39.763430692 91.0
39.768354548 78.0
39.773278404 92.0
39.778202260 74.0
39.783126116 91.0
39.788049972 91.0
39.792973828 88.0
39.797897684 76.0
39.802821540 87.0
39.807745396 94.0
39.812669252 87.0
39.817593108 92.0
39.822516964 108.0
39.827440820 93.0
39.832364676 65.0
39.837288532 86.0
39.842212388 73.0
39.847136244 72.0
39.852060100 64.0
39.856983956 60.0
39.861907812 98.0
39.866831668 78.0
39.871755524 91.0
39.876679380 66.0
39.881603236 73.0
39.886527092 66.0
39.891450948 69.0
39.896374804 55.0
39.901298660 67.0
39.906222516 85.0
39.911146372 79.0
39.916070228 62.0
39.920994084 75.0
39.925917940 78.0
39.930841796 73.0
39.935765652 86.0
39.940689508 68.0
39.945613364 73.0
39.950537220 77.0
39.955461076 76.0
39.960384932 70.0
39.965308788 81.0
39.970232644 70.0
39.975156500 64.0
39.980080356 86.0
39.985004212 70.0
39.989928068 70.0
39.994851924 60.0
39.999775780 71.0
40.004699636 69.0
40.009623492 90.0
40.014547348 68.0
40.019471204 64.0
40.024395060 60.0
40.029318916 61.0
40.034242772 83.0
40.039166628 62.0
40.044090484 64.0
40.049014340 61.0
40.053938196 72.0
40.058862052 65.0
40.063785908 66.0
40.068709764 73.0
40.073633620 69.0
40.078557476 72.0
40.083481332 77.0
40.088405188 72.0
40.093329044 71.0
40.098252900 82.0
40.103176756 77.0
40.108100612 62.0
40.113024468 72.0
40.117948324 71.0
40.122872180 76.0
40.127796036 68.0
40.132719892 77.0
40.137643748 73.0
40.142567604 59.0
40.147491460 68.0
40.152415316 74.0
40.157339172 61.0
40.162263028 58.0
40.167186884 81.0
40.172110740 61.0
40.177034596 69.0
40.181958452 55.0
40.186882308 77.0
40.191806164 79.0
40.196730020 94.0
40.201653876 66.0
40.206577732 65.0
40.211501588 65.0
40.216425444 63.0
40.221349300 74.0
40.226273156 62.0
40.231197012 61.0
40.236120868 76.0
40.241044724 67.0
40.245968580 64.0
40.250892437 73.0
40.255816293 65.0
40.260740149 78.0
40.265664005 93.0
40.270587861 70.0
40.275511717 78.0
40.280435573 59.0
40.285359429 52.0
40.290283285 82.0
40.295207141 59.0
40.300130997 75.0
40.305054853 54.0
40.309978709 63.0
40.314902565 61.0
40.319826421 67.0
40.324750277 62.0
40.329674133 77.0
40.334597989 62.0
40.339521845 68.0
40.344445701 69.0
40.349369557 59.0
40.354293413 67.0
40.359217269 64.0
40.364141125 60.0
40.369064981 59.0
40.373988837 58.0
40.378912693 60.0
40.383836549 64.0
40.388760405 77.0
40.393684261 68.0
40.398608117 78.0
40.403531973 60.0
40.408455829 80.0
40.413379685 69.0
40.418303541 69.0
40.423227397 67.0
40.428151253 68.0
40.433075109 74.0
40.437998965 79.0
40.442922821 65.0
40.447846677 60.0
40.452770533 62.0
40.457694389 72.0
40.462618245 62.0
40.467542101 81.0
40.472465957 78.0
40.477389813 71.0
40.482313669 73.0
40.487237525 71.0
40.492161381 65.0
40.497085237 72.0
40.502009093 74.0
40.506932949 80.0
40.511856805 59.0
40.516780661 84.0
40.521704517 74.0
40.526628373 55.0
40.531552229 76.0
40.536476085 72.0
40.541399941 84.0
40.546323797 78.0
40.551247653 85.0
40.556171509 88.0
40.561095365 60.0
40.566019221 70.0
40.570943077 74.0
40.575866933 72.0
40.580790789 78.0
40.585714645 76.0
40.590638501 75.0
40.595562357 60.0
40.600486213 74.0
40.605410069 72.0
40.610333925 77.0
40.615257781 71.0
40.620181637 82.0
40.625105493 76.0
40.630029349 66.0
40.634953205 67.0
40.639877061 93.0
40.644800917 77.0
40.649724773 85.0
40.654648629 56.0
40.659572485 74.0
40.664496341 66.0
40.669420197 79.0
40.674344053 62.0
40.679267909 76.0
40.684191765 76.0
40.689115621 81.0
40.694039477 94.0
40.698963333 81.0
40.703887189 85.0
40.708811045 74.0
40.713734901 81.0
40.718658757 95.0
40.723582613 89.0
40.728506469 98.0
40.733430325 71.0
40.738354181 74.0
40.743278037 80.0
40.748201893 66.0
40.753125750 92.0
40.758049606 74.0
40.762973462 106.0
40.767897318 86.0
40.772821174 78.0
40.777745030 81.0
40.782668886 87.0
40.787592742 90.0
40.792516598 95.0
40.797440454 86.0
40.802364310 84.0
40.807288166 96.0
40.812212022 85.0
40.817135878 75.0
40.822059734 87.0
40.826983590 76.0
40.831907446 87.0
40.836831302 93.0
40.841755158 93.0
40.846679014 80.0
40.851602870 88.0
40.856526726 98.0
40.861450582 77.0
40.866374438 88.0
40.871298294 94.0
40.876222150 82.0
40.881146006 66.0
40.886069862 97.0
40.890993718 86.0
40.895917574 82.0
40.900841430 95.0
40.905765286 86.0
40.910689142 102.0
40.915612998 89.0
40.920536854 91.0
40.925460710 89.0
40.930384566 81.0
40.935308422 94.0
40.940232278 78.0
40.945156134 93.0
40.950079990 99.0
40.955003846 102.0
40.959927702 100.0
40.964851558 92.0
40.969775414 73.0
40.974699270 97.0
40.979623126 80.0
40.984546982 90.0
40.989470838 87.0
40.994394694 86.0
40.999318550 83.0
41.004242406 89.0
41.009166262 91.0
41.014090118 93.0
41.019013974 112.0
41.023937830 88.0
41.028861686 72.0
41.033785542 94.0
41.038709398 102.0
41.043633254 107.0
41.048557110 107.0
41.053480966 101.0
41.058404822 97.0
41.063328678 99.0
41.068252534 88.0
41.073176390 112.0
41.078100246 93.0
41.083024102 105.0
41.087947958 118.0
41.092871814 89.0
41.097795670 111.0
41.102719526 86.0
41.107643382 104.0
41.112567238 100.0
41.117491094 99.0
41.122414950 93.0
41.127338806 93.0
41.132262662 92.0
41.137186518 128.0
41.142110374 114.0
41.147034230 102.0
41.151958086 108.0
41.156881942 106.0
41.161805798 110.0
41.166729654 94.0
41.171653510 106.0
41.176577366 97.0
41.181501222 104.0
41.186425078 109.0
41.191348934 92.0
41.196272790 125.0
41.201196646 99.0
41.206120502 109.0
41.211044358 97.0
41.215968214 108.0
41.220892070 116.0
41.225815926 111.0
41.230739782 126.0
41.235663638 114.0
41.240587494 92.0
41.245511350 114.0
41.250435207 131.0
41.255359063 122.0
41.260282919 131.0
41.265206775 131.0
41.270130631 124.0
41.275054487 135.0
41.279978343 99.0
41.284902199 124.0
41.289826055 141.0
41.294749911 116.0
41.299673767 145.0
41.304597623 129.0
41.309521479 127.0
41.314445335 134.0
41.319369191 121.0
41.324293047 153.0
41.329216903 156.0
41.334140759 140.0
41.339064615 144.0
41.343988471 133.0
41.348912327 171.0
41.353836183 171.0
41.358760039 172.0
41.363683895 170.0
41.368607751 189.0
41.373531607 184.0
41.378455463 199.0
41.383379319 217.0
41.388303175 278.0
41.393227031 288.0
41.398150887 310.0
41.403074743 326.0
41.407998599 349.0
41.412922455 368.0
41.417846311 423.0
41.422770167 421.0
41.427694023 475.0
41.432617879 445.0
41.437541735 484.0
41.442465591 461.0
41.447389447 440.0
41.452313303 448.0
41.457237159 454.0
41.462161015 475.0
41.467084871 418.0
41.472008727 422.0
41.476932583 427.0
41.481856439 419.0
41.486780295 489.0
41.491704151 441.0
41.496628007 475.0
41.501551863 459.0
41.506475719 521.0
41.511399575 544.0
41.516323431 561.0
41.521247287 556.0
41.526171143 664.0
41.531094999 755.0
41.536018855 797.0
41.540942711 788.0
41.545866567 1014.0
41.550790423 1216.0
41.555714279 1275.0
41.560638135 1572.0
41.565561991 1881.0
41.570485847 2180.0
41.575409703 2759.0
41.580333559 3690.0
41.585257415 5004.0
41.590181271 7726.0
41.595105127 11887.0
41.600028983 19946.0
41.604952839 29264.0
41.609876695 37720.0
41.614800551 42880.0
41.619724407 45179.0
41.624648263 43528.0
41.629572119 38066.0
41.634495975 29296.0
41.639419831 20675.0
41.644343687 13449.0
41.649267543 9035.0
41.654191399 6256.0
41.659115255 4401.0
41.664039111 3438.0
41.668962967 2899.0
41.673886823 2583.0
41.678810679 2516.0
41.683734535 2526.0
41.688658391 2901.0
41.693582247 3538.0
41.698506103 4683.0
41.703429959 6793.0
41.708353815 10409.0
41.713277671 14570.0
41.718201527 18483.0
41.723125383 20774.0
41.728049239 21784.0
41.732973095 21043.0
41.737896951 18630.0
41.742820807 14982.0
41.747744663 10530.0
41.752668520 7397.0
41.757592376 4894.0
41.762516232 3333.0
41.767440088 2412.0
41.772363944 1844.0
41.777287800 1524.0
41.782211656 1185.0
41.787135512 1020.0
41.792059368 895.0
41.796983224 802.0
41.801907080 700.0
41.806830936 596.0
41.811754792 603.0
41.816678648 518.0
41.821602504 550.0
41.826526360 488.0
41.831450216 428.0
41.836374072 414.0
41.841297928 372.0
41.846221784 414.0
41.851145640 377.0
41.856069496 327.0
41.860993352 277.0
41.865917208 308.0
41.870841064 264.0
41.875764920 306.0
41.880688776 270.0
41.885612632 286.0
41.890536488 208.0
41.895460344 210.0
41.900384200 266.0
41.905308056 198.0
41.910231912 196.0
41.915155768 178.0
41.920079624 192.0
41.925003480 157.0
41.929927336 190.0
41.934851192 189.0
41.939775048 164.0
41.944698904 187.0
41.949622760 154.0
41.954546616 159.0
41.959470472 142.0
41.964394328 153.0
41.969318184 150.0
41.974242040 148.0
41.979165896 155.0
41.984089752 136.0
41.989013608 138.0
41.993937464 154.0
41.998861320 127.0
42.003785176 148.0
42.008709032 139.0
42.013632888 136.0
42.018556744 123.0
42.023480600 130.0
42.028404456 136.0
42.033328312 134.0
42.038252168 138.0
42.043176024 124.0
42.048099880 114.0
42.053023736 124.0
42.057947592 125.0
42.062871448 107.0
42.067795304 112.0
42.072719160 125.0
42.077643016 103.0
42.082566872 116.0
42.087490728 100.0
42.092414584 121.0
42.097338440 121.0
42.102262296 104.0
42.107186152 122.0
42.112110008 102.0
42.117033864 129.0
42.121957720 113.0
42.126881576 104.0
42.131805432 90.0
42.136729288 97.0
42.141653144 98.0
42.146577000 89.0
42.151500856 111.0
42.156424712 93.0
42.161348568 107.0
42.166272424 101.0
42.171196280 102.0
42.176120136 113.0
42.181043992 85.0
42.185967848 93.0
42.190891704 76.0
42.195815560 86.0
42.200739416 99.0
42.205663272 93.0
42.210587128 70.0
42.215510984 88.0
42.220434840 103.0
42.225358696 78.0
42.230282552 88.0
42.235206408 79.0
42.240130264 84.0
42.245054120 98.0
42.249977977 83.0
42.254901833 93.0
42.259825689 81.0
42.264749545 80.0
42.269673401 77.0
42.274597257 75.0
42.279521113 66.0
42.284444969 79.0
42.289368825 92.0
42.294292681 78.0
42.299216537 85.0
42.304140393 89.0
42.309064249 53.0
42.313988105 78.0
42.318911961 86.0
42.323835817 82.0
42.328759673 79.0
42.333683529 76.0
42.338607385 106.0
42.343531241 85.0
42.348455097 86.0
42.353378953 64.0
42.358302809 79.0
42.363226665 78.0
42.368150521 78.0
42.373074377 60.0
42.377998233 77.0
42.382922089 72.0
42.387845945 59.0
42.392769801 67.0
42.397693657 82.0
42.402617513 80.0
42.407541369 70.0
42.412465225 74.0
42.417389081 88.0
42.422312937 82.0
42.427236793 80.0
42.432160649 72.0
42.437084505 87.0
42.442008361 59.0
42.446932217 69.0
42.451856073 71.0
42.456779929 72.0
42.461703785 89.0
42.466627641 64.0
42.471551497 91.0
42.476475353 74.0
42.481399209 71.0
42.486323065 72.0
42.491246921 65.0
42.496170777 76.0
42.501094633 77.0
42.506018489 78.0
42.510942345 70.0
42.515866201 62.0
42.520790057 74.0
42.525713913 58.0
42.530637769 69.0
42.535561625 68.0
42.540485481 77.0
42.545409337 82.0
42.550333193 70.0
42.555257049 49.0
42.560180905 95.0
42.565104761 71.0
42.570028617 73.0
42.574952473 64.0
42.579876329 65.0
42.584800185 61.0
42.589724041 73.0
42.594647897 81.0
42.599571753 66.0
42.604495609 85.0
42.609419465 63.0
42.614343321 66.0
42.619267177 60.0
42.624191033 72.0
42.629114889 52.0
42.634038745 71.0
42.638962601 49.0
42.643886457 55.0
42.648810313 68.0
42.653734169 72.0
42.658658025 67.0
42.663581881 74.0
42.668505737 66.0
42.673429593 64.0
42.678353449 57.0
42.683277305 67.0
42.688201161 69.0
42.693125017 69.0
42.698048873 74.0
42.702972729 73.0
42.707896585 73.0
42.712820441 57.0
42.717744297 71.0
42.722668153 68.0
42.727592009 63.0
42.732515865 69.0
42.737439721 64.0
42.742363577 55.0
42.747287433 75.0
42.752211290 58.0
42.757135146 61.0
42.762059002 59.0
42.766982858 69.0
42.771906714 71.0
42.776830570 62.0
42.781754426 68.0
42.786678282 58.0
42.791602138 66.0
42.796525994 59.0
42.801449850 65.0
42.806373706 52.0
42.811297562 78.0
42.816221418 72.0
42.821145274 53.0
42.826069130 49.0
42.830992986 66.0
42.835916842 64.0
42.840840698 72.0
42.845764554 67.0
42.850688410 73.0
42.855612266 95.0
42.860536122 70.0
42.865459978 61.0
42.870383834 51.0
42.875307690 61.0
42.880231546 49.0
42.885155402 68.0
42.890079258 74.0
42.895003114 61.0
42.899926970 69.0
42.904850826 59.0
42.909774682 66.0
42.914698538 68.0
42.919622394 65.0
42.924546250 70.0
42.929470106 62.0
42.934393962 71.0
42.939317818 62.0
42.944241674 56.0
42.949165530 72.0
42.954089386 59.0
42.959013242 69.0
42.963937098 75.0
42.968860954 49.0
42.973784810 58.0
42.978708666 62.0
42.983632522 75.0
42.988556378 56.0
42.993480234 71.0
42.998404090 59.0
43.003327946 60.0
43.008251802 58.0
43.013175658 58.0
43.018099514 55.0
43.023023370 58.0
43.027947226 64.0
43.032871082 68.0
43.037794938 64.0
43.042718794 56.0
43.047642650 58.0
43.052566506 62.0
43.057490362 82.0
43.062414218 58.0
43.067338074 52.0
43.072261930 64.0
43.077185786 67.0
43.082109642 58.0
43.087033498 66.0
43.091957354 51.0
43.096881210 66.0
43.101805066 65.0
43.106728922 62.0
43.111652778 67.0
43.116576634 62.0
43.121500490 67.0
43.126424346 60.0
43.131348202 60.0
43.136272058 56.0
43.141195914 55.0
43.146119770 65.0
43.151043626 73.0
43.155967482 65.0
43.160891338 78.0
43.165815194 69.0
43.170739050 57.0
43.175662906 52.0
43.180586762 70.0
43.185510618 69.0
43.190434474 70.0
43.195358330 61.0
43.200282186 60.0
43.205206042 59.0
43.210129898 70.0
43.215053754 66.0
43.219977610 65.0
43.224901466 62.0
43.229825322 55.0
43.234749178 49.0
43.239673034 55.0
43.244596890 53.0
43.249520747 53.0
43.254444603 56.0
43.259368459 57.0
43.264292315 59.0
43.269216171 52.0
43.274140027 62.0
43.279063883 53.0
43.283987739 72.0
43.288911595 68.0
43.293835451 65.0
43.298759307 72.0
43.303683163 67.0
43.308607019 59.0
43.313530875 62.0
43.318454731 63.0
43.323378587 62.0
43.328302443 78.0
43.333226299 72.0
43.338150155 66.0
43.343074011 63.0
43.347997867 69.0
43.352921723 53.0
43.357845579 58.0
43.362769435 60.0
43.367693291 55.0
43.372617147 67.0
43.377541003 79.0
43.382464859 81.0
43.387388715 58.0
43.392312571 65.0
43.397236427 81.0
43.402160283 58.0
43.407084139 57.0
43.412007995 60.0
43.416931851 54.0
43.421855707 58.0
43.426779563 56.0
43.431703419 85.0
43.436627275 61.0
43.441551131 62.0
43.446474987 69.0
43.451398843 59.0
43.456322699 60.0
43.461246555 62.0
43.466170411 71.0
43.471094267 62.0
43.476018123 64.0
43.480941979 69.0
43.485865835 50.0
43.490789691 56.0
43.495713547 67.0
43.500637403 64.0
43.505561259 47.0
43.510485115 53.0
43.515408971 70.0
43.520332827 60.0
43.525256683 62.0
43.530180539 63.0
43.535104395 66.0
43.540028251 71.0
43.544952107 62.0
43.549875963 65.0
43.554799819 57.0
43.559723675 60.0
43.564647531 75.0
43.569571387 61.0
43.574495243 58.0
43.579419099 55.0
43.584342955 54.0
43.589266811 60.0
43.594190667 69.0
43.599114523 50.0
43.604038379 76.0
43.608962235 62.0
43.613886091 63.0
43.618809947 60.0
43.623733803 60.0
43.628657659 65.0
43.633581515 62.0
43.638505371 67.0
43.643429227 63.0
43.648353083 67.0
43.653276939 78.0
43.658200795 50.0
43.663124651 57.0
43.668048507 65.0
43.672972363 78.0
43.677896219 79.0
43.682820075 71.0
43.687743931 70.0
43.692667787 67.0
43.697591643 63.0
43.702515499 63.0
43.707439355 78.0
43.712363211 61.0
43.717287067 54.0
43.722210923 72.0
43.727134779 68.0
43.732058635 74.0
43.736982491 77.0
43.741906347 65.0
43.746830203 76.0
43.751754060 66.0
43.756677916 78.0
43.761601772 70.0
43.766525628 55.0
43.771449484 64.0
43.776373340 64.0
43.781297196 61.0
43.786221052 84.0
43.791144908 62.0
43.796068764 62.0
43.800992620 67.0
43.805916476 80.0
43.810840332 59.0
43.815764188 66.0
43.820688044 78.0
43.825611900 72.0
43.830535756 74.0
43.835459612 67.0
43.840383468 66.0
43.845307324 68.0
43.850231180 67.0
43.855155036 66.0
43.860078892 84.0
43.865002748 78.0
43.869926604 62.0
43.874850460 68.0
43.879774316 66.0
43.884698172 73.0
43.889622028 74.0
43.894545884 67.0
43.899469740 53.0
43.904393596 59.0
43.909317452 68.0
43.914241308 64.0
43.919165164 68.0
43.924089020 67.0
43.929012876 64.0
43.933936732 75.0
43.938860588 78.0
43.943784444 69.0
43.948708300 59.0
43.953632156 88.0
43.958556012 62.0
43.963479868 74.0
43.968403724 65.0
43.973327580 56.0
43.978251436 71.0
43.983175292 76.0
43.988099148 71.0
43.993023004 82.0
43.997946860 63.0
44.002870716 53.0
44.007794572 76.0
44.012718428 82.0
44.017642284 71.0
44.022566140 69.0
44.027489996 70.0
44.032413852 70.0
44.037337708 66.0
44.042261564 71.0
44.047185420 67.0
44.052109276 77.0
44.057033132 86.0
44.061956988 73.0
44.066880844 73.0
44.071804700 77.0
44.076728556 71.0
44.081652412 75.0
44.086576268 73.0
44.091500124 81.0
44.096423980 70.0
44.101347836 82.0
44.106271692 84.0
44.111195548 82.0
44.116119404 72.0
44.121043260 77.0
44.125967116 65.0
44.130890972 82.0
44.135814828 97.0
44.140738684 81.0
44.145662540 91.0
44.150586396 82.0
44.155510252 91.0
44.160434108 72.0
44.165357964 78.0
44.170281820 89.0
44.175205676 82.0
44.180129532 81.0
44.185053388 99.0
44.189977244 82.0
44.194901100 85.0
44.199824956 78.0
44.204748812 91.0
44.209672668 91.0
44.214596524 89.0
44.219520380 96.0
44.224444236 84.0
44.229368092 86.0
44.234291948 98.0
44.239215804 96.0
44.244139660 79.0
44.249063517 86.0
44.253987373 95.0
44.258911229 84.0
44.263835085 113.0
44.268758941 89.0
44.273682797 105.0
44.278606653 84.0
44.283530509 102.0
44.288454365 108.0
44.293378221 90.0
44.298302077 128.0
44.303225933 126.0
44.308149789 120.0
44.313073645 119.0
44.317997501 109.0
44.322921357 121.0
44.327845213 81.0
44.332769069 132.0
44.337692925 118.0
44.342616781 130.0
44.347540637 123.0
44.352464493 124.0
44.357388349 116.0
44.362312205 128.0
44.367236061 119.0
44.372159917 122.0
44.377083773 137.0
44.382007629 145.0
44.386931485 130.0
44.391855341 141.0
44.396779197 164.0
44.401703053 125.0
44.406626909 109.0
44.411550765 139.0
44.416474621 125.0
44.421398477 133.0
44.426322333 147.0
44.431246189 130.0
44.436170045 140.0
44.441093901 132.0
44.446017757 132.0
44.450941613 124.0
44.455865469 126.0
44.460789325 113.0
44.465713181 137.0
44.470637037 123.0
44.475560893 130.0
44.480484749 123.0
44.485408605 117.0
44.490332461 127.0
44.495256317 112.0
44.500180173 129.0
44.505104029 115.0
44.510027885 123.0
44.514951741 107.0
44.519875597 114.0
44.524799453 116.0
44.529723309 113.0
44.534647165 112.0
44.539571021 84.0
44.544494877 109.0
44.549418733 100.0
44.554342589 98.0
44.559266445 96.0
44.564190301 112.0
44.569114157 102.0
44.574038013 107.0
44.578961869 97.0
44.583885725 112.0
44.588809581 116.0
44.593733437 93.0
44.598657293 105.0
44.603581149 94.0
44.608505005 91.0
44.613428861 97.0
44.618352717 96.0
44.623276573 110.0
44.628200429 99.0
44.633124285 73.0
44.638048141 83.0
44.642971997 79.0
44.647895853 97.0
44.652819709 73.0
44.657743565 72.0
44.662667421 88.0
44.667591277 77.0
44.672515133 97.0
44.677438989 74.0
44.682362845 81.0
44.687286701 68.0
44.692210557 59.0
44.697134413 61.0
44.702058269 86.0
44.706982125 76.0
44.711905981 71.0
44.716829837 66.0
44.721753693 67.0
44.726677549 60.0
44.731601405 73.0
44.736525261 61.0
44.741449117 66.0
44.746372973 57.0
44.751296830 77.0
44.756220686 68.0
44.761144542 64.0
44.766068398 76.0
44.770992254 66.0
44.775916110 68.0
44.780839966 54.0
44.785763822 72.0
44.790687678 64.0
44.795611534 74.0
44.800535390 78.0
44.805459246 62.0
44.810383102 47.0
44.815306958 56.0
44.820230814 59.0
44.825154670 53.0
44.830078526 56.0
44.835002382 78.0
44.839926238 64.0
44.844850094 54.0
44.849773950 63.0
44.854697806 73.0
44.859621662 77.0
44.864545518 72.0
44.869469374 60.0
44.874393230 76.0
44.879317086 69.0
44.884240942 74.0
44.889164798 58.0
44.894088654 68.0
44.899012510 53.0
44.903936366 58.0
44.908860222 70.0
44.913784078 73.0
44.918707934 72.0
44.923631790 80.0
44.928555646 63.0
44.933479502 54.0
44.938403358 68.0
44.943327214 71.0
44.948251070 61.0
44.953174926 57.0
44.958098782 58.0
44.963022638 66.0
44.967946494 57.0
44.972870350 51.0
44.977794206 53.0
44.982718062 61.0
44.987641918 90.0
44.992565774 62.0
44.997489630 70.0
