45.002461930 102.0
45.007385786 123.0
45.012309642 101.0
45.017233498 82.0
45.022157354 82.0
45.027081210 107.0
45.032005066 93.0
45.036928922 92.0
45.041852778 108.0
45.046776634 110.0
45.051700490 96.0
45.056624346 136.0
45.061548202 97.0
45.066472058 99.0
45.071395914 95.0
45.076319770 106.0
45.081243626 114.0
45.086167482 98.0
45.091091338 91.0
45.096015194 101.0
45.100939050 102.0
45.105862906 85.0
45.110786762 96.0
45.115710618 95.0
45.120634474 105.0
45.125558330 96.0
45.130482186 107.0
45.135406042 111.0
45.140329898 99.0
45.145253754 100.0
45.150177610 97.0
45.155101466 98.0
45.160025322 93.0
45.164949178 100.0
45.169873034 88.0
45.174796890 124.0
45.179720746 106.0
45.184644602 92.0
45.189568458 99.0
45.194492314 104.0
45.199416170 105.0
45.204340026 97.0
45.209263882 93.0
45.214187738 107.0
45.219111594 108.0
45.224035450 110.0
45.228959306 101.0
45.233883162 85.0
45.238807018 103.0
45.243730874 112.0
45.248654730 100.0
45.253578587 106.0
45.258502443 85.0
45.263426299 84.0
45.268350155 92.0
45.273274011 94.0
45.278197867 91.0
45.283121723 104.0
45.288045579 106.0
45.292969435 115.0
45.297893291 119.0
45.302817147 108.0
45.307741003 108.0
45.312664859 74.0
45.317588715 104.0
45.322512571 109.0
45.327436427 80.0
45.332360283 112.0
45.337284139 86.0
45.342207995 88.0
45.347131851 91.0
45.352055707 104.0
45.356979563 118.0
45.361903419 91.0
45.366827275 101.0
45.371751131 99.0
45.376674987 79.0
45.381598843 107.0
45.386522699 102.0
45.391446555 100.0
45.396370411 84.0
45.401294267 103.0
45.406218123 112.0
45.411141979 80.0
45.416065835 118.0
45.420989691 88.0
45.425913547 87.0
45.430837403 113.0
45.435761259 91.0
45.440685115 98.0
45.445608971 88.0
45.450532827 106.0
45.455456683 109.0
45.460380539 95.0
45.465304395 100.0
45.470228251 76.0
45.475152107 87.0
45.480075963 99.0
45.484999819 102.0
45.489923675 106.0
45.494847531 104.0
45.499771387 88.0
45.504695243 86.0
45.509619099 103.0
45.514542955 104.0
45.519466811 93.0
45.524390667 87.0
45.529314523 108.0
45.534238379 100.0
45.539162235 97.0
45.544086091 95.0
45.549009947 101.0
45.553933803 99.0
45.558857659 112.0
45.563781515 91.0
45.568705371 114.0
45.573629227 111.0
45.578553083 111.0
45.583476939 99.0
45.588400795 111.0
45.593324651 95.0
45.598248507 94.0
45.603172363 101.0
45.608096219 109.0
45.613020075 120.0
45.617943931 87.0
45.622867787 114.0
45.627791643 97.0
45.632715499 104.0
45.637639355 92.0
45.642563211 95.0
45.647487067 102.0
45.652410923 115.0
45.657334779 111.0
45.662258635 104.0
45.667182491 116.0
45.672106347 117.0
45.677030203 94.0
45.681954059 90.0
45.686877915 91.0
45.691801771 88.0
45.696725627 109.0
45.701649483 110.0
45.706573339 126.0
45.711497195 99.0
45.716421051 101.0
45.721344907 109.0
45.726268763 96.0
45.731192619 105.0
45.736116475 92.0
45.741040331 94.0
45.745964187 88.0
45.750888043 88.0
45.755811900 110.0
45.760735756 109.0
45.765659612 99.0
45.770583468 106.0
45.775507324 85.0
45.780431180 111.0
45.785355036 88.0
45.790278892 92.0
45.795202748 115.0
45.800126604 102.0
45.805050460 110.0
45.809974316 75.0
45.814898172 99.0
45.819822028 115.0
45.824745884 102.0
45.829669740 93.0
45.834593596 94.0
45.839517452 105.0
45.844441308 98.0
45.849365164 95.0
45.854289020 83.0
45.859212876 101.0
45.864136732 99.0
45.869060588 117.0
45.873984444 90.0
45.878908300 98.0
45.883832156 95.0
45.888756012 109.0
45.893679868 111.0
45.898603724 92.0
45.903527580 100.0
45.908451436 88.0
45.913375292 99.0
45.918299148 87.0
45.923223004 101.0
45.928146860 114.0
45.933070716 81.0
45.937994572 90.0
45.942918428 120.0
45.947842284 100.0
45.952766140 98.0
45.957689996 98.0
45.962613852 109.0
45.967537708 104.0
45.972461564 101.0
45.977385420 101.0
45.982309276 99.0
45.987233132 92.0
45.992156988 96.0
45.997080844 94.0
46.002004700 121.0
46.006928556 88.0
46.011852412 92.0
46.016776268 121.0
46.021700124 105.0
46.026623980 97.0
46.031547836 113.0
46.036471692 96.0
46.041395548 93.0
46.046319404 96.0
46.051243260 115.0
46.056167116 101.0
46.061090972 102.0
46.066014828 92.0
46.070938684 90.0
46.075862540 106.0
46.080786396 89.0
46.085710252 96.0
46.090634108 106.0
46.095557964 79.0
46.100481820 104.0
46.105405676 104.0
46.110329532 93.0
46.115253388 89.0
46.120177244 102.0
46.125101100 92.0
46.130024956 118.0
46.134948812 97.0
46.139872668 101.0
46.144796524 101.0
46.149720380 108.0
46.154644236 101.0
46.159568092 125.0
46.164491948 112.0
46.169415804 83.0
46.174339660 118.0
46.179263516 97.0
46.184187372 102.0
46.189111228 90.0
46.194035084 99.0
46.198958940 103.0
46.203882796 78.0
46.208806652 119.0
46.213730508 121.0
46.218654364 101.0
46.223578220 88.0
46.228502076 91.0
46.233425932 90.0
46.238349788 94.0
46.243273644 111.0
46.248197500 97.0
46.253121357 131.0
46.258045213 115.0
46.262969069 120.0
46.267892925 104.0
46.272816781 119.0
46.277740637 90.0
46.282664493 78.0
46.287588349 110.0
46.292512205 106.0
46.297436061 96.0
46.302359917 93.0
46.307283773 98.0
46.312207629 95.0
46.317131485 105.0
46.322055341 103.0
46.326979197 94.0
46.331903053 94.0
46.336826909 120.0
46.341750765 106.0
46.346674621 86.0
46.351598477 121.0
46.356522333 92.0
46.361446189 105.0
46.366370045 100.0
46.371293901 111.0
46.376217757 98.0
46.381141613 88.0
46.386065469 96.0
46.390989325 87.0
46.395913181 83.0
46.400837037 99.0
46.405760893 97.0
46.410684749 109.0
46.415608605 136.0
46.420532461 95.0
46.425456317 116.0
46.430380173 110.0
46.435304029 116.0
46.440227885 109.0
46.445151741 113.0
46.450075597 95.0
46.454999453 103.0
46.459923309 99.0
46.464847165 101.0
46.469771021 86.0
46.474694877 121.0
46.479618733 95.0
46.484542589 100.0
46.489466445 107.0
46.494390301 92.0
46.499314157 110.0
46.504238013 107.0
46.509161869 91.0
46.514085725 91.0
46.519009581 110.0
46.523933437 84.0
46.528857293 116.0
46.533781149 107.0
46.538705005 91.0
46.543628861 102.0
46.548552717 104.0
46.553476573 106.0
46.558400429 107.0
46.563324285 96.0
46.568248141 77.0
46.573171997 92.0
46.578095853 114.0
46.583019709 86.0
46.587943565 114.0
46.592867421 84.0
46.597791277 119.0
46.602715133 100.0
46.607638989 93.0
46.612562845 90.0
46.617486701 91.0
46.622410557 94.0
46.627334413 131.0
46.632258269 107.0
46.637182125 112.0
46.642105981 110.0
46.647029837 114.0
46.651953693 78.0
46.656877549 97.0
46.661801405 97.0
46.666725261 109.0
46.671649117 99.0
46.676572973 85.0
46.681496829 113.0
46.686420685 122.0
46.691344541 132.0
46.696268397 111.0
46.701192253 120.0
46.706116109 103.0
46.711039965 129.0
46.715963821 108.0
46.720887677 133.0
46.725811533 114.0
46.730735389 119.0
46.735659245 135.0
46.740583101 121.0
46.745506957 133.0
46.750430813 123.0
46.755354670 106.0
46.760278526 111.0
46.765202382 105.0
46.770126238 119.0
46.775050094 100.0
46.779973950 101.0
46.784897806 116.0
46.789821662 101.0
46.794745518 104.0
46.799669374 118.0
46.804593230 118.0
46.809517086 112.0
46.814440942 98.0
46.819364798 106.0
46.824288654 117.0
46.829212510 109.0
46.834136366 101.0
46.839060222 108.0
46.843984078 114.0
46.848907934 119.0
46.853831790 127.0
46.858755646 132.0
46.863679502 128.0
46.868603358 117.0
46.873527214 119.0
46.878451070 116.0
46.883374926 110.0
46.888298782 110.0
46.893222638 102.0
46.898146494 111.0
46.903070350 117.0
46.907994206 123.0
46.912918062 115.0
46.917841918 127.0
46.922765774 114.0
46.927689630 127.0
46.932613486 123.0
46.937537342 109.0
46.942461198 108.0
46.947385054 123.0
46.952308910 125.0
46.957232766 133.0
46.962156622 121.0
46.967080478 118.0
46.972004334 131.0
46.976928190 133.0
46.981852046 134.0
46.986775902 124.0
46.991699758 133.0
46.996623614 149.0
47.001547470 156.0
47.006471326 131.0
47.011395182 153.0
47.016319038 169.0
47.021242894 181.0
47.026166750 182.0
47.031090606 206.0
47.036014462 172.0
47.040938318 219.0
47.045862174 274.0
47.050786030 336.0
47.055709886 429.0
47.060633742 467.0
47.065557598 509.0
47.070481454 727.0
47.075405310 872.0
47.080329166 959.0
47.085253022 1068.0
47.090176878 1245.0
47.095100734 1338.0
47.100024590 1497.0
47.104948446 1506.0
47.109872302 1548.0
47.114796158 1589.0
47.119720014 1472.0
47.124643870 1438.0
47.129567726 1343.0
47.134491582 1240.0
47.139415438 1068.0
47.144339294 963.0
47.149263150 817.0
47.154187006 716.0
47.159110862 594.0
47.164034718 516.0
47.168958574 482.0
47.173882430 395.0
47.178806286 429.0
47.183730142 402.0
47.188653998 372.0
47.193577854 378.0
47.198501710 383.0
47.203425566 335.0
47.208349422 310.0
47.213273278 299.0
47.218197134 293.0
47.223120990 208.0
47.228044846 221.0
47.232968702 213.0
47.237892558 190.0
47.242816414 173.0
47.247740270 180.0
47.252664127 188.0
47.257587983 166.0
47.262511839 160.0
47.267435695 172.0
47.272359551 135.0
47.277283407 133.0
47.282207263 160.0
47.287131119 156.0
47.292054975 146.0
47.296978831 125.0
47.301902687 133.0
47.306826543 122.0
47.311750399 106.0
47.316674255 126.0
47.321598111 136.0
47.326521967 118.0
47.331445823 146.0
47.336369679 127.0
47.341293535 127.0
47.346217391 137.0
47.351141247 137.0
47.356065103 145.0
47.360988959 131.0
47.365912815 107.0
47.370836671 122.0
47.375760527 122.0
47.380684383 140.0
47.385608239 138.0
47.390532095 120.0
47.395455951 118.0
47.400379807 140.0
47.405303663 162.0
47.410227519 125.0
47.415151375 127.0
47.420075231 147.0
47.424999087 104.0
47.429922943 135.0
47.434846799 123.0
47.439770655 117.0
47.444694511 134.0
47.449618367 137.0
47.454542223 145.0
47.459466079 134.0
47.464389935 146.0
47.469313791 122.0
47.474237647 125.0
47.479161503 112.0
47.484085359 111.0
47.489009215 120.0
47.493933071 130.0
47.498856927 142.0
47.503780783 121.0
47.508704639 139.0
47.513628495 129.0
47.518552351 129.0
47.523476207 114.0
47.528400063 134.0
47.533323919 104.0
47.538247775 115.0
47.543171631 114.0
47.548095487 114.0
47.553019343 131.0
47.557943199 129.0
47.562867055 110.0
47.567790911 111.0
47.572714767 119.0
47.577638623 127.0
47.582562479 133.0
47.587486335 117.0
47.592410191 113.0
47.597334047 124.0
47.602257903 122.0
47.607181759 142.0
47.612105615 118.0
47.617029471 109.0
47.621953327 124.0
47.626877183 110.0
47.631801039 106.0
47.636724895 116.0
47.641648751 110.0
47.646572607 109.0
47.651496463 124.0
47.656420319 136.0
47.661344175 106.0
47.666268031 129.0
47.671191887 103.0
47.676115743 114.0
47.681039599 145.0
47.685963455 128.0
47.690887311 102.0
47.695811167 119.0
47.700735023 123.0
47.705658879 119.0
47.710582735 127.0
47.715506591 105.0
47.720430447 138.0
47.725354303 108.0
47.730278159 127.0
47.735202015 123.0
47.740125871 97.0
47.745049727 99.0
47.749973583 119.0
47.754897440 113.0
47.759821296 103.0
47.764745152 107.0
47.769669008 129.0
47.774592864 108.0
47.779516720 117.0
47.784440576 116.0
47.789364432 115.0
47.794288288 104.0
47.799212144 150.0
47.804136000 126.0
47.809059856 112.0
47.813983712 127.0
47.818907568 115.0
47.823831424 114.0
47.828755280 125.0
47.833679136 95.0
47.838602992 108.0
47.843526848 124.0
47.848450704 128.0
47.853374560 130.0
47.858298416 123.0
47.863222272 113.0
47.868146128 126.0
47.873069984 105.0
47.877993840 127.0
47.882917696 118.0
47.887841552 112.0
47.892765408 116.0
47.897689264 111.0
47.902613120 126.0
47.907536976 117.0
47.912460832 124.0
47.917384688 114.0
47.922308544 122.0
47.927232400 114.0
47.932156256 116.0
47.937080112 120.0
47.942003968 128.0
47.946927824 121.0
47.951851680 111.0
47.956775536 113.0
47.961699392 131.0
47.966623248 94.0
47.971547104 106.0
47.976470960 100.0
47.981394816 112.0
47.986318672 105.0
47.991242528 106.0
47.996166384 116.0
48.001090240 101.0
48.006014096 120.0
48.010937952 110.0
48.015861808 125.0
48.020785664 106.0
48.025709520 123.0
48.030633376 105.0
48.035557232 125.0
48.040481088 114.0
48.045404944 119.0
48.050328800 115.0
48.055252656 117.0
48.060176512 94.0
48.065100368 93.0
48.070024224 118.0
48.074948080 96.0
48.079871936 99.0
48.084795792 119.0
48.089719648 111.0
48.094643504 102.0
48.099567360 116.0
48.104491216 105.0
48.109415072 121.0
48.114338928 113.0
48.119262784 125.0
48.124186640 100.0
48.129110496 119.0
48.134034352 106.0
48.138958208 118.0
48.143882064 140.0
48.148805920 116.0
48.153729776 104.0
48.158653632 104.0
48.163577488 130.0
48.168501344 108.0
48.173425200 126.0
48.178349056 101.0
48.183272912 129.0
48.188196768 117.0
48.193120624 126.0
48.198044480 102.0
48.202968336 110.0
48.207892192 106.0
48.212816048 134.0
48.217739904 110.0
48.222663760 116.0
48.227587616 117.0
48.232511472 109.0
48.237435328 121.0
48.242359184 104.0
48.247283040 119.0
48.252206897 101.0
48.257130753 113.0
48.262054609 155.0
48.266978465 119.0
48.271902321 124.0
48.276826177 114.0
48.281750033 126.0
48.286673889 99.0
48.291597745 140.0
48.296521601 124.0
48.301445457 127.0
48.306369313 116.0
48.311293169 118.0
48.316217025 108.0
48.321140881 107.0
48.326064737 121.0
48.330988593 115.0
48.335912449 131.0
48.340836305 134.0
48.345760161 114.0
48.350684017 122.0
48.355607873 119.0
48.360531729 110.0
48.365455585 132.0
48.370379441 111.0
48.375303297 111.0
48.380227153 114.0
48.385151009 119.0
48.390074865 119.0
48.394998721 110.0
48.399922577 140.0
48.404846433 112.0
48.409770289 114.0
48.414694145 110.0
48.419618001 134.0
48.424541857 119.0
48.429465713 106.0
48.434389569 105.0
48.439313425 100.0
48.444237281 99.0
48.449161137 115.0
48.454084993 111.0
48.459008849 112.0
48.463932705 122.0
48.468856561 122.0
48.473780417 115.0
48.478704273 115.0
48.483628129 125.0
48.488551985 120.0
48.493475841 116.0
48.498399697 119.0
48.503323553 124.0
48.508247409 123.0
48.513171265 112.0
48.518095121 129.0
48.523018977 114.0
48.527942833 107.0
48.532866689 109.0
48.537790545 110.0
48.542714401 117.0
48.547638257 124.0
48.552562113 130.0
48.557485969 112.0
48.562409825 114.0
48.567333681 108.0
48.572257537 124.0
48.577181393 118.0
48.582105249 127.0
48.587029105 102.0
48.591952961 110.0
48.596876817 131.0
48.601800673 128.0
48.606724529 119.0
48.611648385 127.0
48.616572241 102.0
48.621496097 108.0
48.626419953 129.0
48.631343809 127.0
48.636267665 100.0
48.641191521 115.0
48.646115377 122.0
48.651039233 111.0
48.655963089 121.0
48.660886945 100.0
48.665810801 116.0
48.670734657 115.0
48.675658513 121.0
48.680582369 124.0
48.685506225 125.0
48.690430081 123.0
48.695353937 136.0
48.700277793 106.0
48.705201649 103.0
48.710125505 132.0
48.715049361 107.0
48.719973217 99.0
48.724897073 140.0
48.729820929 114.0
48.734744785 112.0
48.739668641 131.0
48.744592497 113.0
48.749516353 129.0
48.754440210 124.0
48.759364066 94.0
48.764287922 126.0
48.769211778 133.0
48.774135634 132.0
48.779059490 114.0
48.783983346 101.0
48.788907202 119.0
48.793831058 111.0
48.798754914 98.0
48.803678770 119.0
48.808602626 124.0
48.813526482 106.0
48.818450338 113.0
48.823374194 108.0
48.828298050 121.0
48.833221906 127.0
48.838145762 125.0
48.843069618 108.0
48.847993474 115.0
48.852917330 127.0
48.857841186 135.0
48.862765042 115.0
48.867688898 132.0
48.872612754 117.0
48.877536610 112.0
48.882460466 105.0
48.887384322 125.0
48.892308178 123.0
48.897232034 109.0
48.902155890 120.0
48.907079746 122.0
48.912003602 139.0
48.916927458 126.0
48.921851314 118.0
48.926775170 110.0
48.931699026 142.0
48.936622882 148.0
48.941546738 127.0
48.946470594 110.0
48.951394450 132.0
48.956318306 121.0
48.961242162 121.0
48.966166018 149.0
48.971089874 113.0
48.976013730 112.0
48.980937586 111.0
48.985861442 120.0
48.990785298 104.0
48.995709154 113.0
49.000633010 142.0
49.005556866 118.0
49.010480722 101.0
49.015404578 128.0
49.020328434 120.0
49.025252290 106.0
49.030176146 116.0
49.035100002 152.0
49.040023858 108.0
49.044947714 99.0
49.049871570 110.0
49.054795426 126.0
49.059719282 119.0
49.064643138 119.0
49.069566994 136.0
49.074490850 131.0
49.079414706 107.0
49.084338562 123.0
49.089262418 126.0
49.094186274 129.0
49.099110130 108.0
49.104033986 122.0
49.108957842 113.0
49.113881698 106.0
49.118805554 120.0
49.123729410 119.0
49.128653266 132.0
49.133577122 136.0
49.138500978 133.0
49.143424834 114.0
49.148348690 146.0
49.153272546 117.0
49.158196402 112.0
49.163120258 122.0
49.168044114 140.0
49.172967970 119.0
49.177891826 133.0
49.182815682 128.0
49.187739538 107.0
49.192663394 122.0
49.197587250 127.0
49.202511106 133.0
49.207434962 134.0
49.212358818 134.0
49.217282674 126.0
49.222206530 115.0
49.227130386 105.0
49.232054242 113.0
49.236978098 122.0
49.241901954 117.0
49.246825810 135.0
49.251749667 133.0
49.256673523 137.0
49.261597379 136.0
49.266521235 129.0
49.271445091 139.0
49.276368947 124.0
49.281292803 131.0
49.286216659 126.0
49.291140515 159.0
49.296064371 154.0
49.300988227 144.0
49.305912083 117.0
49.310835939 149.0
49.315759795 141.0
49.320683651 117.0
49.325607507 138.0
49.330531363 142.0
49.335455219 140.0
49.340379075 145.0
49.345302931 126.0
49.350226787 135.0
49.355150643 150.0
49.360074499 135.0
49.364998355 123.0
49.369922211 133.0
49.374846067 124.0
49.379769923 145.0
49.384693779 157.0
49.389617635 146.0
49.394541491 151.0
49.399465347 144.0
49.404389203 137.0
49.409313059 142.0
49.414236915 138.0
49.419160771 135.0
49.424084627 141.0
49.429008483 126.0
49.433932339 152.0
49.438856195 154.0
49.443780051 141.0
49.448703907 144.0
49.453627763 139.0
49.458551619 142.0
49.463475475 150.0
49.468399331 138.0
49.473323187 157.0
49.478247043 147.0
49.483170899 149.0
49.488094755 157.0
49.493018611 151.0
49.497942467 155.0
49.502866323 149.0
49.507790179 186.0
49.512714035 160.0
49.517637891 175.0
49.522561747 151.0
49.527485603 144.0
49.532409459 143.0
49.537333315 171.0
49.542257171 170.0
49.547181027 171.0
49.552104883 149.0
49.557028739 140.0
49.561952595 176.0
49.566876451 152.0
49.571800307 160.0
49.576724163 165.0
49.581648019 168.0
49.586571875 137.0
49.591495731 190.0
49.596419587 168.0
49.601343443 199.0
49.606267299 181.0
49.611191155 155.0
49.616115011 161.0
49.621038867 167.0
49.625962723 156.0
49.630886579 186.0
49.635810435 193.0
49.640734291 159.0
49.645658147 160.0
49.650582003 182.0
49.655505859 158.0
49.660429715 189.0
49.665353571 174.0
49.670277427 165.0
49.675201283 176.0
49.680125139 177.0
49.685048995 191.0
49.689972851 196.0
49.694896707 196.0
49.699820563 173.0
49.704744419 175.0
49.709668275 193.0
49.714592131 208.0
49.719515987 191.0
49.724439843 164.0
49.729363699 187.0
49.734287555 180.0
49.739211411 215.0
49.744135267 200.0
49.749059123 182.0
49.753982980 189.0
49.758906836 218.0
49.763830692 218.0
49.768754548 182.0
49.773678404 200.0
49.778602260 218.0
49.783526116 219.0
49.788449972 190.0
49.793373828 231.0
49.798297684 179.0
49.803221540 204.0
49.808145396 199.0
49.813069252 206.0
49.817993108 185.0
49.822916964 225.0
49.827840820 205.0
49.832764676 213.0
49.837688532 210.0
49.842612388 212.0
49.847536244 208.0
49.852460100 217.0
49.857383956 202.0
49.862307812 202.0
49.867231668 231.0
49.872155524 225.0
49.877079380 238.0
49.882003236 243.0
49.886927092 232.0
49.891850948 255.0
49.896774804 216.0
49.901698660 246.0
49.906622516 215.0
49.911546372 234.0
49.916470228 230.0
49.921394084 214.0
49.926317940 195.0
49.931241796 226.0
49.936165652 222.0
49.941089508 260.0
49.946013364 214.0
49.950937220 237.0
49.955861076 231.0
49.960784932 216.0
49.965708788 240.0
49.970632644 206.0
49.975556500 226.0
49.980480356 227.0
49.985404212 225.0
49.990328068 243.0
49.995251924 255.0
50.000175780 233.0
50.005099636 229.0
50.010023492 260.0
50.014947348 247.0
50.019871204 227.0
50.024795060 230.0
50.029718916 230.0
50.034642772 219.0
50.039566628 237.0
50.044490484 285.0
50.049414340 242.0
50.054338196 243.0
50.059262052 234.0
50.064185908 257.0
50.069109764 264.0
50.074033620 266.0
50.078957476 285.0
50.083881332 261.0
50.088805188 290.0
50.093729044 232.0
50.098652900 257.0
50.103576756 269.0
50.108500612 296.0
50.113424468 278.0
50.118348324 308.0
50.123272180 294.0
50.128196036 305.0
50.133119892 330.0
50.138043748 295.0
50.142967604 327.0
50.147891460 325.0
50.152815316 309.0
50.157739172 294.0
50.162663028 326.0
50.167586884 314.0
50.172510740 310.0
50.177434596 340.0
50.182358452 333.0
50.187282308 325.0
50.192206164 288.0
50.197130020 309.0
50.202053876 301.0
50.206977732 291.0
50.211901588 278.0
50.216825444 315.0
50.221749300 297.0
50.226673156 306.0
50.231597012 305.0
50.236520868 276.0
50.241444724 279.0
50.246368580 289.0
50.251292437 311.0
50.256216293 304.0
50.261140149 268.0
50.266064005 290.0
50.270987861 318.0
50.275911717 305.0
50.280835573 278.0
50.285759429 261.0
50.290683285 310.0
50.295607141 280.0
50.300530997 271.0
50.305454853 291.0
50.310378709 284.0
50.315302565 294.0
50.320226421 292.0
50.325150277 284.0
50.330074133 297.0
50.334997989 307.0
50.339921845 270.0
50.344845701 255.0
50.349769557 287.0
50.354693413 284.0
50.359617269 299.0
50.364541125 260.0
50.369464981 280.0
50.374388837 268.0
50.379312693 280.0
50.384236549 315.0
50.389160405 301.0
50.394084261 284.0
50.399008117 271.0
50.403931973 280.0
50.408855829 314.0
50.413779685 284.0
50.418703541 267.0
50.423627397 286.0
50.428551253 279.0
50.433475109 310.0
50.438398965 285.0
50.443322821 277.0
50.448246677 278.0
50.453170533 258.0
50.458094389 263.0
50.463018245 266.0
50.467942101 284.0
50.472865957 283.0
50.477789813 306.0
50.482713669 315.0
50.487637525 282.0
50.492561381 241.0
50.497485237 267.0
50.502409093 286.0
50.507332949 290.0
50.512256805 312.0
50.517180661 282.0
50.522104517 295.0
50.527028373 269.0
50.531952229 326.0
50.536876085 280.0
50.541799941 289.0
50.546723797 285.0
50.551647653 303.0
50.556571509 290.0
50.561495365 280.0
50.566419221 301.0
50.571343077 256.0
50.576266933 268.0
50.581190789 286.0
50.586114645 276.0
50.591038501 241.0
50.595962357 287.0
50.600886213 234.0
50.605810069 291.0
50.610733925 275.0
50.615657781 269.0
50.620581637 262.0
50.625505493 277.0
50.630429349 256.0
50.635353205 280.0
50.640277061 236.0
50.645200917 263.0
50.650124773 237.0
50.655048629 274.0
50.659972485 275.0
50.664896341 267.0
50.669820197 262.0
50.674744053 239.0
50.679667909 255.0
50.684591765 258.0
50.689515621 272.0
50.694439477 239.0
50.699363333 267.0
50.704287189 283.0
50.709211045 255.0
50.714134901 292.0
50.719058757 259.0
50.723982613 230.0
50.728906469 266.0
50.733830325 266.0
50.738754181 305.0
50.743678037 255.0
50.748601893 264.0
50.753525750 223.0
50.758449606 255.0
50.763373462 266.0
50.768297318 256.0
50.773221174 261.0
50.778145030 267.0
50.783068886 285.0
50.787992742 277.0
50.792916598 257.0
50.797840454 240.0
50.802764310 255.0
50.807688166 256.0
50.812612022 264.0
50.817535878 227.0
50.822459734 278.0
50.827383590 261.0
50.832307446 263.0
50.837231302 231.0
50.842155158 296.0
50.847079014 260.0
50.852002870 272.0
50.856926726 277.0
50.861850582 257.0
50.866774438 259.0
50.871698294 267.0
50.876622150 277.0
50.881546006 261.0
50.886469862 262.0
50.891393718 283.0
50.896317574 233.0
50.901241430 267.0
50.906165286 231.0
50.911089142 304.0
50.916012998 210.0
50.920936854 257.0
50.925860710 286.0
50.930784566 289.0
50.935708422 231.0
50.940632278 260.0
50.945556134 266.0
50.950479990 301.0
50.955403846 276.0
50.960327702 260.0
50.965251558 266.0
50.970175414 291.0
50.975099270 229.0
50.980023126 276.0
50.984946982 301.0
50.989870838 289.0
50.994794694 255.0
50.999718550 261.0
51.004642406 291.0
51.009566262 271.0
51.014490118 275.0
51.019413974 260.0
51.024337830 303.0
51.029261686 284.0
51.034185542 290.0
51.039109398 286.0
51.044033254 270.0
51.048957110 281.0
51.053880966 278.0
51.058804822 280.0
51.063728678 268.0
51.068652534 287.0
51.073576390 273.0
51.078500246 284.0
51.083424102 298.0
51.088347958 303.0
51.093271814 279.0
51.098195670 296.0
51.103119526 297.0
51.108043382 313.0
51.112967238 293.0
51.117891094 308.0
51.122814950 289.0
51.127738806 310.0
51.132662662 325.0
51.137586518 323.0
51.142510374 280.0
51.147434230 294.0
51.152358086 285.0
51.157281942 273.0
51.162205798 307.0
51.167129654 322.0
51.172053510 347.0
51.176977366 307.0
51.181901222 354.0
51.186825078 316.0
51.191748934 356.0
51.196672790 329.0
51.201596646 330.0
51.206520502 325.0
51.211444358 327.0
51.216368214 347.0
51.221292070 318.0
51.226215926 330.0
51.231139782 340.0
51.236063638 337.0
51.240987494 357.0
51.245911350 302.0
51.250835207 398.0
51.255759063 356.0
51.260682919 350.0
51.265606775 347.0
51.270530631 338.0
51.275454487 359.0
51.280378343 348.0
51.285302199 351.0
51.290226055 381.0
51.295149911 357.0
51.300073767 326.0
51.304997623 344.0
51.309921479 378.0
51.314845335 331.0
51.319769191 374.0
51.324693047 371.0
51.329616903 373.0
51.334540759 376.0
51.339464615 369.0
51.344388471 383.0
51.349312327 373.0
51.354236183 365.0
51.359160039 365.0
51.364083895 416.0
51.369007751 415.0
51.373931607 393.0
51.378855463 395.0
51.383779319 382.0
51.388703175 390.0
51.393627031 396.0
51.398550887 411.0
51.403474743 433.0
51.408398599 426.0
51.413322455 403.0
51.418246311 438.0
51.423170167 406.0
51.428094023 409.0
51.433017879 434.0
51.437941735 414.0
51.442865591 424.0
51.447789447 424.0
51.452713303 431.0
51.457637159 447.0
51.462561015 433.0
51.467484871 465.0
51.472408727 446.0
51.477332583 469.0
51.482256439 430.0
51.487180295 481.0
51.492104151 440.0
51.497028007 460.0
51.501951863 459.0
51.506875719 467.0
51.511799575 468.0
51.516723431 463.0
51.521647287 469.0
51.526571143 462.0
51.531494999 463.0
51.536418855 477.0
51.541342711 514.0
51.546266567 489.0
51.551190423 539.0
51.556114279 487.0
51.561038135 496.0
51.565961991 507.0
51.570885847 500.0
51.575809703 472.0
51.580733559 473.0
51.585657415 527.0
51.590581271 478.0
51.595505127 496.0
51.600428983 534.0
51.605352839 483.0
51.610276695 535.0
51.615200551 489.0
51.620124407 513.0
51.625048263 518.0
51.629972119 472.0
51.634895975 535.0
51.639819831 520.0
51.644743687 524.0
51.649667543 555.0
51.654591399 558.0
51.659515255 533.0
51.664439111 513.0
51.669362967 544.0
51.674286823 528.0
51.679210679 600.0
51.684134535 531.0
51.689058391 623.0
51.693982247 591.0
51.698906103 589.0
51.703829959 590.0
51.708753815 578.0
51.713677671 571.0
51.718601527 598.0
51.723525383 589.0
51.728449239 585.0
51.733373095 653.0
51.738296951 603.0
51.743220807 614.0
51.748144663 564.0
51.753068520 613.0
51.757992376 654.0
51.762916232 607.0
51.767840088 665.0
51.772763944 625.0
51.777687800 639.0
51.782611656 658.0
51.787535512 682.0
51.792459368 684.0
51.797383224 620.0
51.802307080 614.0
51.807230936 652.0
51.812154792 620.0
51.817078648 687.0
51.822002504 697.0
51.826926360 706.0
51.831850216 666.0
51.836774072 719.0
51.841697928 699.0
51.846621784 709.0
51.851545640 748.0
51.856469496 699.0
51.861393352 694.0
51.866317208 698.0
51.871241064 747.0
51.876164920 781.0
51.881088776 684.0
51.886012632 746.0
51.890936488 749.0
51.895860344 753.0
51.900784200 761.0
51.905708056 789.0
51.910631912 747.0
51.915555768 783.0
51.920479624 748.0
51.925403480 770.0
51.930327336 778.0
51.935251192 811.0
51.940175048 815.0
51.945098904 835.0
51.950022760 860.0
51.954946616 860.0
51.959870472 858.0
51.964794328 839.0
51.969718184 920.0
51.974642040 894.0
51.979565896 947.0
51.984489752 920.0
51.989413608 889.0
51.994337464 931.0
51.999261320 852.0
52.004185176 907.0
52.009109032 945.0
52.014032888 938.0
52.018956744 962.0
52.023880600 1018.0
52.028804456 1017.0
52.033728312 1083.0
52.038652168 1029.0
52.043576024 1088.0
52.048499880 1033.0
52.053423736 1087.0
52.058347592 1081.0
52.063271448 1111.0
52.068195304 1137.0
52.073119160 1126.0
52.078043016 1129.0
52.082966872 1195.0
52.087890728 1268.0
52.092814584 1238.0
52.097738440 1241.0
52.102662296 1350.0
52.107586152 1298.0
52.112510008 1366.0
52.117433864 1321.0
52.122357720 1410.0
52.127281576 1381.0
52.132205432 1475.0
52.137129288 1500.0
52.142053144 1480.0
52.146977000 1601.0
52.151900856 1594.0
52.156824712 1646.0
52.161748568 1704.0
52.166672424 1804.0
52.171596280 1779.0
52.176520136 1917.0
52.181443992 2107.0
52.186367848 2177.0
52.191291704 2240.0
52.196215560 2488.0
52.201139416 2508.0
52.206063272 2653.0
52.210987128 2845.0
52.215910984 3081.0
52.220834840 3225.0
52.225758696 3402.0
52.230682552 3577.0
52.235606408 3839.0
52.240530264 4050.0
52.245454120 4214.0
52.250377977 4458.0
52.255301833 4433.0
52.260225689 4672.0
52.265149545 4762.0
52.270073401 4844.0
52.274997257 4784.0
52.279921113 4855.0
52.284844969 4729.0
52.289768825 4857.0
52.294692681 4812.0
52.299616537 4575.0
52.304540393 4669.0
52.309464249 4649.0
52.314388105 4628.0
52.319311961 4601.0
52.324235817 4691.0
52.329159673 4660.0
52.334083529 4777.0
52.339007385 4850.0
52.343931241 5088.0
52.348855097 5227.0
52.353778953 5420.0
52.358702809 5680.0
52.363626665 6192.0
52.368550521 6449.0
52.373474377 6824.0
52.378398233 7249.0
52.383322089 7632.0
52.388245945 8252.0
52.393169801 9224.0
52.398093657 9830.0
52.403017513 10757.0
52.407941369 12049.0
52.412865225 13456.0
52.417789081 15152.0
52.422712937 17205.0
52.427636793 19722.0
52.432560649 23363.0
52.437484505 27459.0
52.442408361 33552.0
52.447332217 41626.0
52.452256073 53426.0
52.457179929 71010.0
52.462103785 102619.0
52.467027641 149449.0
52.471951497 214545.0
52.476875353 276698.0
52.481799209 325290.0
52.486723065 357599.0
52.491646921 377483.0
52.496570777 390386.0
52.501494633 398305.0
52.506418489 399038.0
52.511342345 391789.0
52.516266201 375743.0
52.521190057 343868.0
52.526113913 290770.0
52.531037769 222454.0
52.535961625 160591.0
52.540885481 116581.0
52.545809337 86404.0
52.550733193 66331.0
52.555657049 51422.0
52.560580905 42503.0
52.565504761 36255.0
52.570428617 33121.0
52.575352473 31070.0
52.580276329 31281.0
52.585200185 32181.0
52.590124041 36710.0
52.595047897 42831.0
52.599971753 54340.0
52.604895609 72129.0
52.609819465 97352.0
52.614743321 126566.0
52.619667177 152021.0
52.624591033 172914.0
52.629514889 186475.0
52.634438745 196220.0
52.639362601 199331.0
52.644286457 200301.0
52.649210313 197874.0
52.654134169 191505.0
52.659058025 178221.0
52.663981881 159161.0
52.668905737 130689.0
52.673829593 101513.0
52.678753449 75542.0
52.683677305 55866.0
52.688601161 41787.0
52.693525017 31772.0
52.698448873 24923.0
52.703372729 20221.0
52.708296585 17048.0
52.713220441 14277.0
52.718144297 12635.0
52.723068153 10921.0
52.727992009 9790.0
52.732915865 8740.0
52.737839721 8135.0
52.742763577 7552.0
52.747687433 6933.0
52.752611290 6521.0
52.757535146 6167.0
52.762459002 5676.0
52.767382858 5279.0
52.772306714 5153.0
52.777230570 4924.0
52.782154426 4662.0
52.787078282 4439.0
52.792002138 4248.0
52.796925994 4050.0
52.801849850 3675.0
52.806773706 3642.0
52.811697562 3619.0
52.816621418 3380.0
52.821545274 3308.0
52.826469130 3303.0
52.831392986 3019.0
52.836316842 2924.0
52.841240698 2908.0
52.846164554 2861.0
52.851088410 2674.0
52.856012266 2644.0
52.860936122 2575.0
52.865859978 2539.0
52.870783834 2333.0
52.875707690 2288.0
52.880631546 2297.0
52.885555402 2211.0
52.890479258 2167.0
52.895403114 2102.0
52.900326970 2029.0
52.905250826 1990.0
52.910174682 1900.0
52.915098538 1891.0
52.920022394 1886.0
52.924946250 1780.0
52.929870106 1752.0
52.934793962 1638.0
52.939717818 1726.0
52.944641674 1603.0
52.949565530 1613.0
52.954489386 1549.0
52.959413242 1431.0
52.964337098 1456.0
52.969260954 1449.0
52.974184810 1472.0
52.979108666 1411.0
52.984032522 1361.0
52.988956378 1301.0
52.993880234 1329.0
52.998804090 1262.0
53.003727946 1238.0
53.008651802 1187.0
53.013575658 1202.0
53.018499514 1170.0
53.023423370 1151.0
53.028347226 1150.0
53.033271082 1181.0
53.038194938 1150.0
53.043118794 1060.0
53.048042650 1064.0
53.052966506 1081.0
53.057890362 1001.0
53.062814218 977.0
53.067738074 1052.0
53.072661930 1027.0
53.077585786 947.0
53.082509642 944.0
53.087433498 988.0
53.092357354 1007.0
53.097281210 882.0
53.102205066 925.0
53.107128922 871.0
53.112052778 882.0
53.116976634 886.0
53.121900490 851.0
53.126824346 866.0
53.131748202 859.0
53.136672058 839.0
53.141595914 830.0
53.146519770 830.0
53.151443626 777.0
53.156367482 812.0
53.161291338 778.0
53.166215194 766.0
53.171139050 760.0
53.176062906 771.0
53.180986762 730.0
53.185910618 748.0
53.190834474 699.0
53.195758330 723.0
53.200682186 712.0
53.205606042 746.0
53.210529898 714.0
53.215453754 724.0
53.220377610 701.0
53.225301466 667.0
53.230225322 665.0
53.235149178 627.0
53.240073034 670.0
53.244996890 646.0
53.249920747 664.0
53.254844603 617.0
53.259768459 578.0
53.264692315 613.0
53.269616171 638.0
53.274540027 574.0
53.279463883 621.0
53.284387739 577.0
53.289311595 578.0
53.294235451 649.0
53.299159307 557.0
53.304083163 541.0
53.309007019 533.0
53.313930875 541.0
53.318854731 557.0
53.323778587 530.0
53.328702443 541.0
53.333626299 511.0
53.338550155 517.0
53.343474011 503.0
53.348397867 567.0
53.353321723 483.0
53.358245579 513.0
53.363169435 492.0
53.368093291 536.0
53.373017147 493.0
53.377941003 504.0
53.382864859 517.0
53.387788715 505.0
53.392712571 511.0
53.397636427 434.0
53.402560283 444.0
53.407484139 486.0
53.412407995 459.0
53.417331851 456.0
53.422255707 451.0
53.427179563 440.0
53.432103419 416.0
53.437027275 419.0
53.441951131 445.0
53.446874987 381.0
53.451798843 402.0
53.456722699 423.0
53.461646555 423.0
53.466570411 377.0
53.471494267 400.0
53.476418123 335.0
53.481341979 420.0
53.486265835 381.0
53.491189691 372.0
53.496113547 359.0
53.501037403 366.0
53.505961259 360.0
53.510885115 370.0
53.515808971 406.0
53.520732827 350.0
53.525656683 391.0
53.530580539 366.0
53.535504395 360.0
53.540428251 335.0
53.545352107 345.0
53.550275963 328.0
53.555199819 370.0
53.560123675 340.0
53.565047531 313.0
53.569971387 309.0
53.574895243 337.0
53.579819099 323.0
53.584742955 312.0
53.589666811 348.0
53.594590667 333.0
53.599514523 309.0
53.604438379 346.0
53.609362235 334.0
53.614286091 265.0
53.619209947 310.0
53.624133803 290.0
53.629057659 281.0
53.633981515 281.0
53.638905371 293.0
53.643829227 298.0
53.648753083 298.0
53.653676939 303.0
53.658600795 309.0
53.663524651 292.0
53.668448507 292.0
53.673372363 292.0
53.678296219 257.0
53.683220075 272.0
53.688143931 268.0
53.693067787 281.0
53.697991643 300.0
53.702915499 272.0
53.707839355 258.0
53.712763211 264.0
53.717687067 263.0
53.722610923 270.0
53.727534779 215.0
53.732458635 211.0
53.737382491 233.0
53.742306347 225.0
53.747230203 220.0
53.752154060 190.0
53.757077916 208.0
53.762001772 212.0
53.766925628 208.0
53.771849484 199.0
53.776773340 223.0
53.781697196 207.0
53.786621052 203.0
53.791544908 217.0
53.796468764 217.0
53.801392620 224.0
53.806316476 191.0
53.811240332 205.0
53.816164188 221.0
53.821088044 217.0
53.826011900 216.0
53.830935756 197.0
53.835859612 210.0
53.840783468 204.0
53.845707324 172.0
53.850631180 222.0
53.855555036 208.0
53.860478892 203.0
53.865402748 171.0
53.870326604 207.0
53.875250460 176.0
53.880174316 205.0
53.885098172 193.0
53.890022028 177.0
53.894945884 224.0
53.899869740 223.0
53.904793596 206.0
53.909717452 188.0
53.914641308 210.0
53.919565164 180.0
53.924489020 195.0
53.929412876 196.0
53.934336732 183.0
53.939260588 188.0
53.944184444 199.0
53.949108300 175.0
53.954032156 170.0
53.958956012 161.0
53.963879868 174.0
53.968803724 181.0
53.973727580 182.0
53.978651436 196.0
53.983575292 170.0
53.988499148 190.0
53.993423004 190.0
53.998346860 173.0
54.003270716 192.0
54.008194572 189.0
54.013118428 172.0
54.018042284 183.0
54.022966140 173.0
54.027889996 200.0
54.032813852 163.0
54.037737708 199.0
54.042661564 175.0
54.047585420 168.0
54.052509276 161.0
54.057433132 185.0
54.062356988 152.0
54.067280844 160.0
54.072204700 183.0
54.077128556 210.0
54.082052412 167.0
54.086976268 203.0
54.091900124 164.0
54.096823980 167.0
54.101747836 158.0
54.106671692 172.0
54.111595548 171.0
54.116519404 159.0
54.121443260 175.0
54.126367116 174.0
54.131290972 182.0
54.136214828 181.0
54.141138684 165.0
54.146062540 175.0
54.150986396 176.0
54.155910252 172.0
54.160834108 159.0
54.165757964 155.0
54.170681820 185.0
54.175605676 172.0
54.180529532 173.0
54.185453388 156.0
54.190377244 181.0
54.195301100 176.0
54.200224956 147.0
54.205148812 169.0
54.210072668 174.0
54.214996524 161.0
54.219920380 160.0
54.224844236 150.0
54.229768092 187.0
54.234691948 168.0
54.239615804 153.0
54.244539660 180.0
54.249463517 162.0
54.254387373 163.0
54.259311229 181.0
54.264235085 156.0
54.269158941 200.0
54.274082797 153.0
54.279006653 157.0
54.283930509 171.0
54.288854365 146.0
54.293778221 177.0
54.298702077 172.0
54.303625933 149.0
54.308549789 160.0
54.313473645 149.0
54.318397501 175.0
54.323321357 137.0
54.328245213 141.0
54.333169069 147.0
54.338092925 171.0
54.343016781 167.0
54.347940637 156.0
54.352864493 177.0
54.357788349 159.0
54.362712205 152.0
54.367636061 155.0
54.372559917 157.0
54.377483773 152.0
54.382407629 139.0
54.387331485 152.0
54.392255341 163.0
54.397179197 154.0
54.402103053 163.0
54.407026909 160.0
54.411950765 171.0
54.416874621 159.0
54.421798477 145.0
54.426722333 138.0
54.431646189 147.0
54.436570045 161.0
54.441493901 153.0
54.446417757 169.0
54.451341613 145.0
54.456265469 151.0
54.461189325 134.0
54.466113181 160.0
54.471037037 167.0
54.475960893 138.0
54.480884749 159.0
54.485808605 161.0
54.490732461 122.0
54.495656317 147.0
54.500580173 145.0
54.505504029 141.0
54.510427885 141.0
54.515351741 152.0
54.520275597 134.0
54.525199453 145.0
54.530123309 156.0
54.535047165 153.0
54.539971021 125.0
54.544894877 164.0
54.549818733 151.0
54.554742589 146.0
54.559666445 142.0
54.564590301 147.0
54.569514157 156.0
54.574438013 158.0
54.579361869 155.0
54.584285725 146.0
54.589209581 164.0
54.594133437 131.0
54.599057293 149.0
54.603981149 157.0
54.608905005 142.0
54.613828861 157.0
54.618752717 144.0
54.623676573 146.0
54.628600429 147.0
54.633524285 153.0
54.638448141 143.0
54.643371997 154.0
54.648295853 142.0
54.653219709 151.0
54.658143565 162.0
54.663067421 143.0
54.667991277 140.0
54.672915133 128.0
54.677838989 145.0
54.682762845 155.0
54.687686701 140.0
54.692610557 130.0
54.697534413 157.0
54.702458269 135.0
54.707382125 160.0
54.712305981 144.0
54.717229837 131.0
54.722153693 142.0
54.727077549 133.0
54.732001405 158.0
54.736925261 133.0
54.741849117 128.0
54.746772973 149.0
54.751696830 131.0
54.756620686 146.0
54.761544542 108.0
54.766468398 158.0
54.771392254 136.0
54.776316110 133.0
54.781239966 135.0
54.786163822 137.0
54.791087678 154.0
54.796011534 152.0
54.800935390 126.0
54.805859246 158.0
54.810783102 129.0
54.815706958 150.0
54.820630814 144.0
54.825554670 139.0
54.830478526 131.0
54.835402382 142.0
54.840326238 142.0
54.845250094 121.0
54.850173950 146.0
54.855097806 119.0
54.860021662 130.0
54.864945518 144.0
54.869869374 121.0
54.874793230 137.0
54.879717086 146.0
54.884640942 136.0
54.889564798 131.0
54.894488654 158.0
54.899412510 127.0
54.904336366 138.0
54.909260222 126.0
54.914184078 145.0
54.919107934 138.0
54.924031790 129.0
54.928955646 126.0
54.933879502 136.0
54.938803358 136.0
54.943727214 139.0
54.948651070 134.0
54.953574926 145.0
54.958498782 145.0
54.963422638 144.0
54.968346494 113.0
54.973270350 146.0
54.978194206 135.0
54.983118062 135.0
54.988041918 128.0
54.992965774 106.0
54.997889630 145.0
