55.001861930 135.0
55.006785786 134.0
55.011709642 135.0
55.016633498 161.0
55.021557354 116.0
55.026481210 146.0
55.031405066 160.0
55.036328922 125.0
55.041252778 160.0
55.046176634 129.0
55.051100490 148.0
55.056024346 128.0
55.060948202 163.0
55.065872058 122.0
55.070795914 125.0
55.075719770 143.0
55.080643626 123.0
55.085567482 123.0
55.090491338 159.0
55.095415194 144.0
55.100339050 129.0
55.105262906 137.0
55.110186762 124.0
55.115110618 140.0
55.120034474 121.0
55.124958330 142.0
55.129882186 148.0
55.134806042 130.0
55.139729898 129.0
55.144653754 133.0
55.149577610 159.0
55.154501466 136.0
55.159425322 144.0
55.164349178 137.0
55.169273034 148.0
55.174196890 143.0
55.179120746 156.0
55.184044602 129.0
55.188968459 134.0
55.193892315 141.0
55.198816171 150.0
55.203740027 124.0
55.208663883 129.0
55.213587739 137.0
55.218511595 143.0
55.223435451 147.0
55.228359307 137.0
55.233283163 139.0
55.238207019 144.0
55.243130875 135.0
55.248054731 135.0
55.252978587 140.0
55.257902443 130.0
55.262826299 119.0
55.267750155 132.0
55.272674011 165.0
55.277597867 150.0
55.282521723 140.0
55.287445579 144.0
55.292369435 139.0
55.297293291 152.0
55.302217147 128.0
55.307141003 146.0
55.312064859 146.0
55.316988715 124.0
55.321912571 121.0
55.326836427 129.0
55.331760283 131.0
55.336684139 147.0
55.341607995 153.0
55.346531851 142.0
55.351455707 132.0
55.356379563 135.0
55.361303419 137.0
55.366227275 141.0
55.371151131 153.0
55.376074987 142.0
55.380998843 136.0
55.385922699 136.0
55.390846555 119.0
55.395770411 122.0
55.400694267 153.0
55.405618123 153.0
55.410541979 132.0
55.415465835 137.0
55.420389691 139.0
55.425313547 168.0
55.430237403 128.0
55.435161259 139.0
55.440085115 152.0
55.445008971 135.0
55.449932827 142.0
55.454856683 130.0
55.459780539 131.0
55.464704395 127.0
55.469628251 142.0
55.474552107 139.0
55.479475963 138.0
55.484399819 164.0
55.489323675 121.0
55.494247531 141.0
55.499171387 147.0
55.504095243 142.0
55.509019099 145.0
55.513942955 149.0
55.518866811 116.0
55.523790667 120.0
55.528714523 140.0
55.533638379 133.0
55.538562235 156.0
55.543486091 151.0
55.548409947 138.0
55.553333803 142.0
55.558257660 132.0
55.563181516 146.0
55.568105372 155.0
55.573029228 148.0
55.577953084 150.0
55.582876940 125.0
55.587800796 138.0
55.592724652 147.0
55.597648508 145.0
55.602572364 145.0
55.607496220 132.0
55.612420076 134.0
55.617343932 139.0
55.622267788 134.0
55.627191644 154.0
55.632115500 152.0
55.637039356 133.0
55.641963212 157.0
55.646887068 153.0
55.651810924 130.0
55.656734780 143.0
55.661658636 124.0
55.666582492 160.0
55.671506348 135.0
55.676430204 118.0
55.681354060 120.0
55.686277916 139.0
55.691201772 123.0
55.696125628 148.0
55.701049484 147.0
55.705973340 131.0
55.710897196 144.0
55.715821052 137.0
55.720744908 141.0
55.725668764 134.0
55.730592620 138.0
55.735516476 134.0
55.740440332 128.0
55.745364188 131.0
55.750288044 126.0
55.755211900 135.0
55.760135756 145.0
55.765059612 137.0
55.769983468 143.0
55.774907324 117.0
55.779831180 124.0
55.784755036 136.0
55.789678892 140.0
55.794602748 147.0
55.799526604 136.0
55.804450460 131.0
55.809374316 144.0
55.814298172 149.0
55.819222028 163.0
55.824145884 169.0
55.829069740 142.0
55.833993596 157.0
55.838917452 127.0
55.843841308 145.0
55.848765164 120.0
55.853689020 157.0
55.858612876 157.0
55.863536732 152.0
55.868460588 123.0
55.873384444 133.0
55.878308300 128.0
55.883232156 145.0
55.888156012 142.0
55.893079868 165.0
55.898003724 139.0
55.902927580 140.0
55.907851436 156.0
55.912775292 129.0
55.917699148 143.0
55.922623004 130.0
55.927546860 133.0
55.932470717 126.0
55.937394573 142.0
55.942318429 164.0
55.947242285 147.0
55.952166141 144.0
55.957089997 139.0
55.962013853 129.0
55.966937709 136.0
55.971861565 127.0
55.976785421 151.0
55.981709277 142.0
55.986633133 147.0
55.991556989 128.0
55.996480845 137.0
56.001404701 135.0
56.006328557 129.0
56.011252413 140.0
56.016176269 123.0
56.021100125 126.0
56.026023981 129.0
56.030947837 138.0
56.035871693 122.0
56.040795549 146.0
56.045719405 136.0
56.050643261 137.0
56.055567117 155.0
56.060490973 135.0
56.065414829 125.0
56.070338685 150.0
56.075262541 137.0
56.080186397 149.0
56.085110253 143.0
56.090034109 151.0
56.094957965 138.0
56.099881821 156.0
56.104805677 128.0
56.109729533 156.0
56.114653389 129.0
56.119577245 129.0
56.124501101 126.0
56.129424957 141.0
56.134348813 130.0
56.139272669 154.0
56.144196525 142.0
56.149120381 142.0
56.154044237 144.0
56.158968093 124.0
56.163891949 115.0
56.168815805 140.0
56.173739661 125.0
56.178663517 147.0
56.183587373 130.0
56.188511229 151.0
56.193435085 173.0
56.198358941 139.0
56.203282797 129.0
56.208206653 126.0
56.213130509 138.0
56.218054365 129.0
56.222978221 156.0
56.227902077 155.0
56.232825933 138.0
56.237749789 125.0
56.242673645 146.0
56.247597501 140.0
56.252521357 140.0
56.257445213 128.0
56.262369069 141.0
56.267292925 143.0
56.272216781 146.0
56.277140637 148.0
56.282064493 130.0
56.286988349 113.0
56.291912205 110.0
56.296836061 160.0
56.301759918 142.0
56.306683774 157.0
56.311607630 126.0
56.316531486 150.0
56.321455342 133.0
56.326379198 145.0
56.331303054 152.0
56.336226910 139.0
56.341150766 124.0
56.346074622 128.0
56.350998478 130.0
56.355922334 137.0
56.360846190 128.0
56.365770046 128.0
56.370693902 132.0
56.375617758 159.0
56.380541614 131.0
56.385465470 140.0
56.390389326 131.0
56.395313182 166.0
56.400237038 120.0
56.405160894 154.0
56.410084750 126.0
56.415008606 157.0
56.419932462 124.0
56.424856318 135.0
56.429780174 127.0
56.434704030 160.0
56.439627886 137.0
56.444551742 157.0
56.449475598 140.0
56.454399454 127.0
56.459323310 148.0
56.464247166 130.0
56.469171022 138.0
56.474094878 116.0
56.479018734 119.0
56.483942590 138.0
56.488866446 148.0
56.493790302 128.0
56.498714158 138.0
56.503638014 152.0
56.508561870 137.0
56.513485726 136.0
56.518409582 125.0
56.523333438 169.0
56.528257294 149.0
56.533181150 125.0
56.538105006 121.0
56.543028862 137.0
56.547952718 161.0
56.552876574 147.0
56.557800430 125.0
56.562724286 140.0
56.567648142 146.0
56.572571998 151.0
56.577495854 144.0
56.582419710 140.0
56.587343566 135.0
56.592267422 133.0
56.597191278 146.0
56.602115134 131.0
56.607038990 158.0
56.611962846 143.0
56.616886702 118.0
56.621810558 154.0
56.626734414 139.0
56.631658270 158.0
56.636582126 118.0
56.641505982 145.0
56.646429838 127.0
56.651353694 142.0
56.656277550 145.0
56.661201406 144.0
56.666125262 126.0
56.671049119 119.0
56.675972975 139.0
56.680896831 131.0
56.685820687 165.0
56.690744543 146.0
56.695668399 143.0
56.700592255 134.0
56.705516111 167.0
56.710439967 161.0
56.715363823 144.0
56.720287679 142.0
56.725211535 143.0
56.730135391 157.0
56.735059247 166.0
56.739983103 120.0
56.744906959 148.0
56.749830815 124.0
56.754754671 124.0
56.759678527 144.0
56.764602383 133.0
56.769526239 126.0
56.774450095 150.0
56.779373951 149.0
56.784297807 137.0
56.789221663 141.0
56.794145519 127.0
56.799069375 139.0
56.803993231 145.0
56.808917087 144.0
56.813840943 115.0
56.818764799 143.0
56.823688655 133.0
56.828612511 162.0
56.833536367 117.0
56.838460223 138.0
56.843384079 121.0
56.848307935 130.0
56.853231791 146.0
56.858155647 133.0
56.863079503 149.0
56.868003359 139.0
56.872927215 137.0
56.877851071 153.0
56.882774927 129.0
56.887698783 125.0
56.892622639 139.0
56.897546495 131.0
56.902470351 140.0
56.907394207 115.0
56.912318063 148.0
56.917241919 141.0
56.922165775 138.0
56.927089631 144.0
56.932013487 137.0
56.936937343 131.0
56.941861199 147.0
56.946785055 143.0
56.951708911 129.0
56.956632767 137.0
56.961556623 157.0
56.966480479 153.0
56.971404335 141.0
56.976328191 145.0
56.981252047 144.0
56.986175903 133.0
56.991099759 151.0
56.996023615 137.0
57.000947471 162.0
57.005871327 142.0
57.010795183 156.0
57.015719039 150.0
57.020642895 122.0
57.025566751 133.0
57.030490607 151.0
57.035414463 156.0
57.040338320 151.0
57.045262176 147.0
57.050186032 148.0
57.055109888 135.0
57.060033744 161.0
57.064957600 151.0
57.069881456 158.0
57.074805312 147.0
57.079729168 144.0
57.084653024 161.0
57.089576880 144.0
57.094500736 167.0
57.099424592 138.0
57.104348448 148.0
57.109272304 128.0
57.114196160 145.0
57.119120016 133.0
57.124043872 140.0
57.128967728 155.0
57.133891584 153.0
57.138815440 146.0
57.143739296 128.0
57.148663152 131.0
57.153587008 135.0
57.158510864 145.0
57.163434720 117.0
57.168358576 143.0
57.173282432 160.0
57.178206288 161.0
57.183130144 138.0
57.188054000 130.0
57.192977856 142.0
57.197901712 138.0
57.202825568 155.0
57.207749424 145.0
57.212673280 149.0
57.217597136 118.0
57.222520992 131.0
57.227444848 124.0
57.232368704 157.0
57.237292560 145.0
57.242216416 159.0
57.247140272 157.0
57.252064128 148.0
57.256987984 111.0
57.261911840 141.0
57.266835696 151.0
57.271759552 121.0
57.276683408 146.0
57.281607264 152.0
57.286531120 149.0
57.291454976 133.0
57.296378832 152.0
57.301302688 163.0
57.306226544 148.0
57.311150400 138.0
57.316074256 141.0
57.320998112 135.0
57.325921968 145.0
57.330845824 148.0
57.335769680 150.0
57.340693536 137.0
57.345617392 120.0
57.350541248 130.0
57.355465104 148.0
57.360388960 126.0
57.365312816 144.0
57.370236672 127.0
57.375160528 123.0
57.380084384 139.0
57.385008240 138.0
57.389932096 164.0
57.394855952 134.0
57.399779808 124.0
57.404703664 153.0
57.409627521 126.0
57.414551377 153.0
57.419475233 131.0
57.424399089 145.0
57.429322945 149.0
57.434246801 136.0
57.439170657 115.0
57.444094513 135.0
57.449018369 145.0
57.453942225 120.0
57.458866081 138.0
57.463789937 152.0
57.468713793 140.0
57.473637649 141.0
57.478561505 130.0
57.483485361 136.0
57.488409217 120.0
57.493333073 144.0
57.498256929 138.0
57.503180785 137.0
57.508104641 163.0
57.513028497 138.0
57.517952353 160.0
57.522876209 141.0
57.527800065 144.0
57.532723921 134.0
57.537647777 143.0
57.542571633 131.0
57.547495489 174.0
57.552419345 132.0
57.557343201 146.0
57.562267057 137.0
57.567190913 157.0
57.572114769 144.0
57.577038625 154.0
57.581962481 135.0
57.586886337 117.0
57.591810193 125.0
57.596734049 151.0
57.601657905 146.0
57.606581761 136.0
57.611505617 140.0
57.616429473 135.0
57.621353329 128.0
57.626277185 135.0
57.631201041 140.0
57.636124897 147.0
57.641048753 127.0
57.645972609 142.0
57.650896465 134.0
57.655820321 140.0
57.660744177 161.0
57.665668033 143.0
57.670591889 139.0
57.675515745 176.0
57.680439601 144.0
57.685363457 143.0
57.690287313 149.0
57.695211169 138.0
57.700135025 149.0
57.705058881 148.0
57.709982737 154.0
57.714906593 149.0
57.719830449 154.0
57.724754305 136.0
57.729678161 143.0
57.734602017 141.0
57.739525873 133.0
57.744449729 136.0
57.749373585 152.0
57.754297441 132.0
57.759221297 138.0
57.764145153 144.0
57.769069009 151.0
57.773992865 147.0
57.778916721 150.0
57.783840578 152.0
57.788764434 149.0
57.793688290 148.0
57.798612146 138.0
57.803536002 174.0
57.808459858 142.0
57.813383714 135.0
57.818307570 146.0
57.823231426 151.0
57.828155282 120.0
57.833079138 143.0
57.838002994 148.0
57.842926850 148.0
57.847850706 152.0
57.852774562 129.0
57.857698418 164.0
57.862622274 135.0
57.867546130 133.0
57.872469986 134.0
57.877393842 147.0
57.882317698 150.0
57.887241554 148.0
57.892165410 147.0
57.897089266 134.0
57.902013122 143.0
57.906936978 156.0
57.911860834 155.0
57.916784690 165.0
57.921708546 115.0
57.926632402 138.0
57.931556258 143.0
57.936480114 133.0
57.941403970 159.0
57.946327826 159.0
57.951251682 146.0
57.956175538 150.0
57.961099394 152.0
57.966023250 120.0
57.970947106 149.0
57.975870962 143.0
57.980794818 138.0
57.985718674 118.0
57.990642530 125.0
57.995566386 140.0
58.000490242 142.0
58.005414098 165.0
58.010337954 140.0
58.015261810 145.0
58.020185666 135.0
58.025109522 144.0
58.030033378 156.0
58.034957234 144.0
58.039881090 154.0
58.044804946 142.0
58.049728802 153.0
58.054652658 160.0
58.059576514 150.0
58.064500370 141.0
58.069424226 163.0
58.074348082 135.0
58.079271938 125.0
58.084195794 148.0
58.089119650 167.0
58.094043506 134.0
58.098967362 135.0
58.103891218 153.0
58.108815074 131.0
58.113738930 129.0
58.118662786 147.0
58.123586642 130.0
58.128510498 150.0
58.133434354 138.0
58.138358210 157.0
58.143282066 136.0
58.148205922 124.0
58.153129779 127.0
58.158053635 145.0
58.162977491 140.0
58.167901347 155.0
58.172825203 159.0
58.177749059 131.0
58.182672915 139.0
58.187596771 148.0
58.192520627 148.0
58.197444483 141.0
58.202368339 137.0
58.207292195 126.0
58.212216051 150.0
58.217139907 132.0
58.222063763 156.0
58.226987619 131.0
58.231911475 151.0
58.236835331 136.0
58.241759187 122.0
58.246683043 131.0
58.251606899 145.0
58.256530755 143.0
58.261454611 134.0
58.266378467 120.0
58.271302323 142.0
58.276226179 158.0
58.281150035 127.0
58.286073891 137.0
58.290997747 130.0
58.295921603 164.0
58.300845459 131.0
58.305769315 129.0
58.310693171 127.0
58.315617027 142.0
58.320540883 148.0
58.325464739 142.0
58.330388595 133.0
58.335312451 151.0
58.340236307 148.0
58.345160163 127.0
58.350084019 153.0
58.355007875 137.0
58.359931731 167.0
58.364855587 156.0
58.369779443 142.0
58.374703299 127.0
58.379627155 124.0
58.384551011 139.0
58.389474867 145.0
58.394398723 154.0
58.399322579 142.0
58.404246435 133.0
58.409170291 148.0
58.414094147 148.0
58.419018003 150.0
58.423941859 133.0
58.428865715 137.0
58.433789571 137.0
58.438713427 139.0
58.443637283 136.0
58.448561139 116.0
58.453484995 147.0
58.458408851 138.0
58.463332707 137.0
58.468256563 143.0
58.473180419 128.0
58.478104275 167.0
58.483028131 145.0
58.487951987 147.0
58.492875843 128.0
58.497799699 128.0
58.502723555 147.0
58.507647411 164.0
58.512571267 154.0
58.517495123 131.0
58.522418980 143.0
58.527342836 158.0
58.532266692 138.0
58.537190548 163.0
58.542114404 143.0
58.547038260 140.0
58.551962116 153.0
58.556885972 150.0
58.561809828 135.0
58.566733684 120.0
58.571657540 148.0
58.576581396 136.0
58.581505252 142.0
58.586429108 147.0
58.591352964 132.0
58.596276820 145.0
58.601200676 135.0
58.606124532 155.0
58.611048388 144.0
58.615972244 148.0
58.620896100 158.0
58.625819956 120.0
58.630743812 151.0
58.635667668 144.0
58.640591524 157.0
58.645515380 157.0
58.650439236 148.0
58.655363092 126.0
58.660286948 145.0
58.665210804 135.0
58.670134660 127.0
58.675058516 118.0
58.679982372 136.0
58.684906228 130.0
58.689830084 149.0
58.694753940 142.0
58.699677796 149.0
58.704601652 154.0
58.709525508 132.0
58.714449364 139.0
58.719373220 134.0
58.724297076 136.0
58.729220932 127.0
58.734144788 141.0
58.739068644 168.0
58.743992500 152.0
58.748916356 152.0
58.753840212 158.0
58.758764068 126.0
58.763687924 154.0
58.768611780 148.0
58.773535636 143.0
58.778459492 144.0
58.783383348 135.0
58.788307204 140.0
58.793231060 153.0
58.798154916 149.0
58.803078772 128.0
58.808002628 142.0
58.812926484 139.0
58.817850340 149.0
58.822774196 147.0
58.827698052 139.0
58.832621908 159.0
58.837545764 158.0
58.842469620 149.0
58.847393476 150.0
58.852317332 132.0
58.857241188 126.0
58.862165044 120.0
58.867088900 159.0
58.872012756 121.0
58.876936612 136.0
58.881860468 161.0
58.886784324 152.0
58.891708181 126.0
58.896632037 144.0
58.901555893 135.0
58.906479749 126.0
58.911403605 135.0
58.916327461 153.0
58.921251317 146.0
58.926175173 158.0
58.931099029 157.0
58.936022885 146.0
58.940946741 146.0
58.945870597 128.0
58.950794453 133.0
58.955718309 144.0
58.960642165 144.0
58.965566021 134.0
58.970489877 126.0
58.975413733 172.0
58.980337589 137.0
58.985261445 146.0
58.990185301 130.0
58.995109157 154.0
59.000033013 140.0
59.004956869 149.0
59.009880725 159.0
59.014804581 145.0
59.019728437 132.0
59.024652293 157.0
59.029576149 150.0
59.034500005 158.0
59.039423861 138.0
59.044347717 134.0
59.049271573 138.0
59.054195429 139.0
59.059119285 142.0
59.064043141 132.0
59.068966997 147.0
59.073890853 154.0
59.078814709 157.0
59.083738565 146.0
59.088662421 147.0
59.093586277 162.0
59.098510133 146.0
59.103433989 140.0
59.108357845 126.0
59.113281701 135.0
59.118205557 163.0
59.123129413 144.0
59.128053269 136.0
59.132977125 132.0
59.137900981 160.0
59.142824837 136.0
59.147748693 144.0
59.152672549 140.0
59.157596405 146.0
59.162520261 153.0
59.167444117 138.0
59.172367973 144.0
59.177291829 127.0
59.182215685 151.0
59.187139541 128.0
59.192063397 136.0
59.196987253 160.0
59.201911109 149.0
59.206834965 140.0
59.211758821 149.0
59.216682677 131.0
59.221606533 129.0
59.226530389 132.0
59.231454245 116.0
59.236378101 153.0
59.241301957 132.0
59.246225813 124.0
59.251149669 148.0
59.256073525 133.0
59.260997382 151.0
59.265921238 124.0
59.270845094 143.0
59.275768950 150.0
59.280692806 146.0
59.285616662 141.0
59.290540518 148.0
59.295464374 152.0
59.300388230 131.0
59.305312086 164.0
59.310235942 135.0
59.315159798 151.0
59.320083654 137.0
59.325007510 148.0
59.329931366 129.0
59.334855222 143.0
59.339779078 153.0
59.344702934 142.0
59.349626790 153.0
59.354550646 151.0
59.359474502 134.0
59.364398358 153.0
59.369322214 128.0
59.374246070 148.0
59.379169926 155.0
59.384093782 151.0
59.389017638 160.0
59.393941494 164.0
59.398865350 138.0
59.403789206 147.0
59.408713062 134.0
59.413636918 145.0
59.418560774 152.0
59.423484630 131.0
59.428408486 116.0
59.433332342 146.0
59.438256198 150.0
59.443180054 146.0
59.448103910 134.0
59.453027766 159.0
59.457951622 150.0
59.462875478 130.0
59.467799334 135.0
59.472723190 138.0
59.477647046 141.0
59.482570902 146.0
59.487494758 118.0
59.492418614 139.0
59.497342470 160.0
59.502266326 145.0
59.507190182 131.0
59.512114038 123.0
59.517037894 141.0
59.521961750 146.0
59.526885606 135.0
59.531809462 145.0
59.536733318 146.0
59.541657174 126.0
59.546581030 129.0
59.551504886 154.0
59.556428742 140.0
59.561352598 139.0
59.566276454 149.0
59.571200310 147.0
59.576124166 142.0
59.581048022 137.0
59.585971878 147.0
59.590895734 119.0
59.595819590 142.0
59.600743446 134.0
59.605667302 139.0
59.610591158 147.0
59.615515014 141.0
59.620438870 134.0
59.625362726 146.0
59.630286582 147.0
59.635210439 115.0
59.640134295 124.0
59.645058151 127.0
59.649982007 142.0
59.654905863 152.0
59.659829719 134.0
59.664753575 153.0
59.669677431 142.0
59.674601287 111.0
59.679525143 142.0
59.684448999 135.0
59.689372855 142.0
59.694296711 148.0
59.699220567 159.0
59.704144423 126.0
59.709068279 155.0
59.713992135 130.0
59.718915991 131.0
59.723839847 144.0
59.728763703 142.0
59.733687559 137.0
59.738611415 128.0
59.743535271 164.0
59.748459127 122.0
59.753382983 140.0
59.758306839 132.0
59.763230695 157.0
59.768154551 144.0
59.773078407 150.0
59.778002263 152.0
59.782926119 149.0
59.787849975 141.0
59.792773831 133.0
59.797697687 150.0
59.802621543 133.0
59.807545399 123.0
59.812469255 139.0
59.817393111 140.0
59.822316967 131.0
59.827240823 145.0
59.832164679 132.0
59.837088535 156.0
59.842012391 135.0
59.846936247 135.0
59.851860103 154.0
59.856783959 149.0
59.861707815 143.0
59.866631671 167.0
59.871555527 130.0
59.876479383 146.0
59.881403239 142.0
59.886327095 131.0
59.891250951 157.0
59.896174807 161.0
59.901098663 147.0
59.906022519 153.0
59.910946375 144.0
59.915870231 147.0
59.920794087 156.0
59.925717943 159.0
59.930641799 121.0
59.935565655 123.0
59.940489511 152.0
59.945413367 148.0
59.950337223 127.0
59.955261079 134.0
59.960184935 142.0
59.965108791 128.0
59.970032647 148.0
59.974956503 134.0
59.979880359 142.0
59.984804215 158.0
59.989728071 145.0
59.994651927 142.0
59.999575783 143.0
60.004499640 143.0
60.009423496 120.0
60.014347352 152.0
60.019271208 133.0
60.024195064 145.0
60.029118920 160.0
60.034042776 124.0
60.038966632 149.0
60.043890488 153.0
60.048814344 155.0
60.053738200 159.0
60.058662056 143.0
60.063585912 122.0
60.068509768 140.0
60.073433624 157.0
60.078357480 140.0
60.083281336 129.0
60.088205192 150.0
60.093129048 136.0
60.098052904 148.0
60.102976760 140.0
60.107900616 152.0
60.112824472 138.0
60.117748328 124.0
60.122672184 143.0
60.127596040 142.0
60.132519896 135.0
60.137443752 134.0
60.142367608 141.0
60.147291464 152.0
60.152215320 154.0
60.157139176 179.0
60.162063032 140.0
60.166986888 130.0
60.171910744 136.0
60.176834600 134.0
60.181758456 162.0
60.186682312 148.0
60.191606168 123.0
60.196530024 163.0
60.201453880 167.0
60.206377736 133.0
60.211301592 133.0
60.216225448 152.0
60.221149304 149.0
60.226073160 158.0
60.230997016 144.0
60.235920872 145.0
60.240844728 143.0
60.245768584 157.0
60.250692440 155.0
60.255616296 140.0
60.260540152 145.0
60.265464008 159.0
60.270387864 151.0
60.275311720 164.0
60.280235576 138.0
60.285159432 142.0
60.290083288 137.0
60.295007144 157.0
60.299931000 155.0
60.304854856 152.0
60.309778712 146.0
60.314702568 183.0
60.319626424 155.0
60.324550280 160.0
60.329474136 150.0
60.334397992 165.0
60.339321848 142.0
60.344245704 164.0
60.349169560 158.0
60.354093416 158.0
60.359017272 160.0
60.363941128 156.0
60.368864984 153.0
60.373788841 148.0
60.378712697 142.0
60.383636553 171.0
60.388560409 154.0
60.393484265 138.0
60.398408121 166.0
60.403331977 141.0
60.408255833 160.0
60.413179689 148.0
60.418103545 137.0
60.423027401 161.0
60.427951257 157.0
60.432875113 158.0
60.437798969 161.0
60.442722825 144.0
60.447646681 144.0
60.452570537 155.0
60.457494393 144.0
60.462418249 134.0
60.467342105 167.0
60.472265961 169.0
60.477189817 145.0
60.482113673 134.0
60.487037529 162.0
60.491961385 144.0
60.496885241 154.0
60.501809097 163.0
60.506732953 163.0
60.511656809 136.0
60.516580665 145.0
60.521504521 145.0
60.526428377 161.0
60.531352233 159.0
60.536276089 178.0
60.541199945 137.0
60.546123801 152.0
60.551047657 148.0
60.555971513 148.0
60.560895369 179.0
60.565819225 152.0
60.570743081 159.0
60.575666937 140.0
60.580590793 151.0
60.585514649 188.0
60.590438505 157.0
60.595362361 155.0
60.600286217 165.0
60.605210073 134.0
60.610133929 161.0
60.615057785 140.0
60.619981641 185.0
60.624905497 171.0
60.629829353 131.0
60.634753209 157.0
60.639677065 174.0
60.644600921 160.0
60.649524777 188.0
60.654448633 174.0
60.659372489 154.0
60.664296345 151.0
60.669220201 177.0
60.674144057 167.0
60.679067913 155.0
60.683991769 194.0
60.688915625 193.0
60.693839481 176.0
60.698763337 207.0
60.703687193 188.0
60.708611049 184.0
60.713534905 192.0
60.718458761 196.0
60.723382617 199.0
60.728306473 211.0
60.733230329 190.0
60.738154185 193.0
60.743078042 224.0
60.748001898 265.0
60.752925754 216.0
60.757849610 298.0
60.762773466 319.0
60.767697322 323.0
60.772621178 386.0
60.777545034 452.0
60.782468890 436.0
60.787392746 553.0
60.792316602 597.0
60.797240458 670.0
60.802164314 800.0
60.807088170 921.0
60.812012026 863.0
60.816935882 1047.0
60.821859738 1082.0
60.826783594 1115.0
60.831707450 1053.0
60.836631306 1098.0
60.841555162 1042.0
60.846479018 1016.0
60.851402874 960.0
60.856326730 864.0
60.861250586 821.0
60.866174442 723.0
60.871098298 645.0
60.876022154 637.0
60.880946010 581.0
60.885869866 590.0
60.890793722 560.0
60.895717578 526.0
60.900641434 533.0
60.905565290 491.0
60.910489146 494.0
60.915413002 544.0
60.920336858 415.0
60.925260714 471.0
60.930184570 439.0
60.935108426 424.0
60.940032282 408.0
60.944956138 340.0
60.949879994 332.0
60.954803850 319.0
60.959727706 291.0
60.964651562 306.0
60.969575418 260.0
60.974499274 220.0
60.979423130 238.0
60.984346986 209.0
60.989270842 220.0
60.994194698 193.0
60.999118554 228.0
61.004042410 198.0
61.008966266 209.0
61.013890122 182.0
61.018813978 207.0
61.023737834 155.0
61.028661690 196.0
61.033585546 201.0
61.038509402 213.0
61.043433258 185.0
61.048357114 192.0
61.053280970 181.0
61.058204826 189.0
61.063128682 158.0
61.068052538 149.0
61.072976394 185.0
61.077900250 178.0
61.082824106 166.0
61.087747962 154.0
61.092671818 152.0
61.097595674 198.0
61.102519530 163.0
61.107443386 156.0
61.112367243 181.0
61.117291099 179.0
61.122214955 158.0
61.127138811 170.0
61.132062667 172.0
61.136986523 139.0
61.141910379 156.0
61.146834235 144.0
61.151758091 161.0
61.156681947 155.0
61.161605803 165.0
61.166529659 165.0
61.171453515 139.0
61.176377371 159.0
61.181301227 188.0
61.186225083 173.0
61.191148939 145.0
61.196072795 154.0
61.200996651 166.0
61.205920507 150.0
61.210844363 157.0
61.215768219 161.0
61.220692075 159.0
61.225615931 143.0
61.230539787 159.0
61.235463643 151.0
61.240387499 159.0
61.245311355 163.0
61.250235211 163.0
61.255159067 174.0
61.260082923 150.0
61.265006779 171.0
61.269930635 174.0
61.274854491 163.0
61.279778347 171.0
61.284702203 156.0
61.289626059 175.0
61.294549915 152.0
61.299473771 159.0
61.304397627 156.0
61.309321483 154.0
61.314245339 160.0
61.319169195 166.0
61.324093051 149.0
61.329016907 146.0
61.333940763 161.0
61.338864619 155.0
61.343788475 157.0
61.348712331 140.0
61.353636187 175.0
61.358560043 168.0
61.363483899 154.0
61.368407755 152.0
61.373331611 163.0
61.378255467 166.0
61.383179323 158.0
61.388103179 165.0
61.393027035 150.0
61.397950891 158.0
61.402874747 143.0
61.407798603 150.0
61.412722459 172.0
61.417646315 181.0
61.422570171 144.0
61.427494027 142.0
61.432417883 145.0
61.437341739 159.0
61.442265595 134.0
61.447189451 135.0
61.452113307 154.0
61.457037163 164.0
61.461961019 155.0
61.466884875 145.0
61.471808731 151.0
61.476732587 162.0
61.481656443 148.0
61.486580300 152.0
61.491504156 173.0
61.496428012 144.0
61.501351868 159.0
61.506275724 140.0
61.511199580 141.0
61.516123436 142.0
61.521047292 152.0
61.525971148 131.0
61.530895004 159.0
61.535818860 145.0
61.540742716 165.0
61.545666572 141.0
61.550590428 185.0
61.555514284 145.0
61.560438140 170.0
61.565361996 160.0
61.570285852 168.0
61.575209708 168.0
61.580133564 144.0
61.585057420 160.0
61.589981276 147.0
61.594905132 181.0
61.599828988 147.0
61.604752844 147.0
61.609676700 151.0
61.614600556 163.0
61.619524412 170.0
61.624448268 134.0
61.629372124 147.0
61.634295980 176.0
61.639219836 156.0
61.644143692 155.0
61.649067548 151.0
61.653991404 132.0
61.658915260 156.0
61.663839116 155.0
61.668762972 168.0
61.673686828 129.0
61.678610684 156.0
61.683534540 148.0
61.688458396 145.0
61.693382252 152.0
61.698306108 146.0
61.703229964 154.0
61.708153820 146.0
61.713077676 145.0
61.718001532 148.0
61.722925388 163.0
61.727849244 167.0
61.732773100 155.0
61.737696956 170.0
61.742620812 155.0
61.747544668 163.0
61.752468524 160.0
61.757392380 151.0
61.762316236 153.0
61.767240092 167.0
61.772163948 145.0
61.777087804 146.0
61.782011660 162.0
61.786935516 144.0
61.791859372 144.0
61.796783228 152.0
61.801707084 145.0
61.806630940 173.0
61.811554796 145.0
61.816478652 143.0
61.821402508 180.0
61.826326364 151.0
61.831250220 150.0
61.836174076 137.0
61.841097932 152.0
61.846021788 161.0
61.850945644 156.0
61.855869501 160.0
61.860793357 158.0
61.865717213 149.0
61.870641069 169.0
61.875564925 132.0
61.880488781 176.0
61.885412637 142.0
61.890336493 153.0
61.895260349 138.0
61.900184205 178.0
61.905108061 158.0
61.910031917 159.0
61.914955773 142.0
61.919879629 147.0
61.924803485 180.0
61.929727341 163.0
61.934651197 163.0
61.939575053 161.0
61.944498909 179.0
61.949422765 142.0
61.954346621 172.0
61.959270477 148.0
61.964194333 167.0
61.969118189 139.0
61.974042045 145.0
61.978965901 141.0
61.983889757 171.0
61.988813613 147.0
61.993737469 162.0
61.998661325 148.0
62.003585181 146.0
62.008509037 166.0
62.013432893 142.0
62.018356749 155.0
62.023280605 178.0
62.028204461 158.0
62.033128317 152.0
62.038052173 146.0
62.042976029 168.0
62.047899885 154.0
62.052823741 157.0
62.057747597 160.0
62.062671453 153.0
62.067595309 143.0
62.072519165 158.0
62.077443021 156.0
62.082366877 137.0
62.087290733 156.0
62.092214589 167.0
62.097138445 135.0
62.102062301 154.0
62.106986157 141.0
62.111910013 172.0
62.116833869 155.0
62.121757725 161.0
62.126681581 165.0
62.131605437 148.0
62.136529293 138.0
62.141453149 153.0
62.146377005 137.0
62.151300861 149.0
62.156224717 158.0
62.161148573 142.0
62.166072429 129.0
62.170996285 144.0
62.175920141 144.0
62.180843997 157.0
62.185767853 177.0
62.190691709 158.0
62.195615565 153.0
62.200539421 154.0
62.205463277 156.0
62.210387133 172.0
62.215310989 158.0
62.220234845 174.0
62.225158702 159.0
62.230082558 143.0
62.235006414 145.0
62.239930270 141.0
62.244854126 189.0
62.249777982 142.0
62.254701838 155.0
62.259625694 150.0
62.264549550 143.0
62.269473406 167.0
62.274397262 162.0
62.279321118 159.0
62.284244974 150.0
62.289168830 134.0
62.294092686 148.0
62.299016542 140.0
62.303940398 178.0
62.308864254 146.0
62.313788110 135.0
62.318711966 161.0
62.323635822 149.0
62.328559678 148.0
62.333483534 161.0
62.338407390 156.0
62.343331246 140.0
62.348255102 144.0
62.353178958 180.0
62.358102814 176.0
62.363026670 128.0
62.367950526 140.0
62.372874382 143.0
62.377798238 161.0
62.382722094 165.0
62.387645950 157.0
62.392569806 165.0
62.397493662 153.0
62.402417518 145.0
62.407341374 167.0
62.412265230 136.0
62.417189086 146.0
62.422112942 165.0
62.427036798 148.0
62.431960654 169.0
62.436884510 146.0
62.441808366 160.0
62.446732222 122.0
62.451656078 133.0
62.456579934 167.0
62.461503790 173.0
62.466427646 151.0
62.471351502 151.0
62.476275358 159.0
62.481199214 127.0
62.486123070 142.0
62.491046926 144.0
62.495970782 145.0
62.500894638 149.0
62.505818494 163.0
62.510742350 134.0
62.515666206 150.0
62.520590062 157.0
62.525513918 149.0
62.530437774 139.0
62.535361630 162.0
62.540285486 146.0
62.545209342 142.0
62.550133198 167.0
62.555057054 120.0
62.559980910 141.0
62.564904766 136.0
62.569828622 185.0
62.574752478 151.0
62.579676334 156.0
62.584600190 150.0
62.589524046 156.0
62.594447903 153.0
62.599371759 127.0
62.604295615 146.0
62.609219471 153.0
62.614143327 161.0
62.619067183 150.0
62.623991039 140.0
62.628914895 143.0
62.633838751 143.0
62.638762607 132.0
62.643686463 155.0
62.648610319 152.0
62.653534175 156.0
62.658458031 144.0
62.663381887 137.0
62.668305743 122.0
62.673229599 151.0
62.678153455 160.0
62.683077311 152.0
62.688001167 143.0
62.692925023 163.0
62.697848879 161.0
62.702772735 150.0
62.707696591 161.0
62.712620447 153.0
62.717544303 136.0
62.722468159 141.0
62.727392015 144.0
62.732315871 151.0
62.737239727 168.0
62.742163583 147.0
62.747087439 146.0
62.752011295 166.0
62.756935151 162.0
62.761859007 140.0
62.766782863 134.0
62.771706719 171.0
62.776630575 160.0
62.781554431 144.0
62.786478287 184.0
62.791402143 146.0
62.796325999 158.0
62.801249855 142.0
62.806173711 145.0
62.811097567 160.0
62.816021423 138.0
62.820945279 156.0
62.825869135 151.0
62.830792991 151.0
62.835716847 171.0
62.840640703 161.0
62.845564559 147.0
62.850488415 142.0
62.855412271 154.0
62.860336127 166.0
62.865259983 146.0
62.870183839 139.0
62.875107695 148.0
62.880031551 177.0
62.884955407 178.0
62.889879263 152.0
62.894803119 160.0
62.899726975 153.0
62.904650831 159.0
62.909574687 156.0
62.914498543 140.0
62.919422399 154.0
62.924346255 155.0
62.929270111 160.0
62.934193967 147.0
62.939117823 166.0
62.944041679 147.0
62.948965535 180.0
62.953889391 165.0
62.958813247 160.0
62.963737104 155.0
62.968660960 164.0
62.973584816 158.0
62.978508672 149.0
62.983432528 155.0
62.988356384 144.0
62.993280240 163.0
62.998204096 158.0
63.003127952 159.0
63.008051808 156.0
63.012975664 136.0
63.017899520 151.0
63.022823376 153.0
63.027747232 133.0
63.032671088 160.0
63.037594944 134.0
63.042518800 170.0
63.047442656 187.0
63.052366512 146.0
63.057290368 159.0
63.062214224 141.0
63.067138080 174.0
63.072061936 148.0
63.076985792 153.0
63.081909648 158.0
63.086833504 148.0
63.091757360 148.0
63.096681216 166.0
63.101605072 170.0
63.106528928 165.0
63.111452784 154.0
63.116376640 177.0
63.121300496 171.0
63.126224352 155.0
63.131148208 166.0
63.136072064 140.0
63.140995920 146.0
63.145919776 162.0
63.150843632 160.0
63.155767488 176.0
63.160691344 133.0
63.165615200 129.0
63.170539056 162.0
63.175462912 137.0
63.180386768 159.0
63.185310624 156.0
63.190234480 139.0
63.195158336 145.0
63.200082192 160.0
63.205006048 153.0
63.209929904 161.0
63.214853760 142.0
63.219777616 146.0
63.224701472 133.0
63.229625328 150.0
63.234549184 162.0
63.239473040 163.0
63.244396896 149.0
63.249320752 147.0
63.254244608 171.0
63.259168464 158.0
63.264092320 177.0
63.269016176 143.0
63.273940032 177.0
63.278863888 154.0
63.283787744 152.0
63.288711600 172.0
63.293635456 162.0
63.298559312 179.0
63.303483168 177.0
63.308407024 192.0
63.313330880 185.0
63.318254736 168.0
63.323178592 152.0
63.328102448 150.0
63.333026304 135.0
63.337950161 171.0
63.342874017 163.0
63.347797873 154.0
63.352721729 144.0
63.357645585 158.0
63.362569441 145.0
63.367493297 164.0
63.372417153 148.0
63.377341009 169.0
63.382264865 159.0
63.387188721 145.0
63.392112577 165.0
63.397036433 160.0
63.401960289 153.0
63.406884145 154.0
63.411808001 155.0
63.416731857 157.0
63.421655713 152.0
63.426579569 145.0
63.431503425 168.0
63.436427281 154.0
63.441351137 161.0
63.446274993 194.0
63.451198849 151.0
63.456122705 164.0
63.461046561 165.0
63.465970417 181.0
63.470894273 164.0
63.475818129 137.0
63.480741985 165.0
63.485665841 193.0
63.490589697 164.0
63.495513553 169.0
63.500437409 151.0
63.505361265 166.0
63.510285121 170.0
63.515208977 155.0
63.520132833 154.0
63.525056689 160.0
63.529980545 154.0
63.534904401 142.0
63.539828257 161.0
63.544752113 146.0
63.549675969 146.0
63.554599825 181.0
63.559523681 153.0
63.564447537 148.0
63.569371393 161.0
63.574295249 148.0
63.579219105 166.0
63.584142961 168.0
63.589066817 175.0
63.593990673 158.0
63.598914529 138.0
63.603838385 151.0
63.608762241 172.0
63.613686097 170.0
63.618609953 184.0
63.623533809 187.0
63.628457665 169.0
63.633381521 160.0
63.638305377 173.0
63.643229233 172.0
63.648153089 183.0
63.653076945 182.0
63.658000801 165.0
63.662924657 165.0
63.667848513 182.0
63.672772369 154.0
63.677696225 184.0
63.682620081 184.0
63.687543937 143.0
63.692467793 144.0
63.697391649 159.0
63.702315505 177.0
63.707239362 161.0
63.712163218 165.0
63.717087074 187.0
63.722010930 139.0
63.726934786 157.0
63.731858642 173.0
63.736782498 181.0
63.741706354 160.0
63.746630210 169.0
63.751554066 167.0
63.756477922 157.0
63.761401778 165.0
63.766325634 149.0
63.771249490 186.0
63.776173346 146.0
63.781097202 154.0
63.786021058 169.0
63.790944914 158.0
63.795868770 196.0
63.800792626 162.0
63.805716482 176.0
63.810640338 163.0
63.815564194 190.0
63.820488050 156.0
63.825411906 179.0
63.830335762 163.0
63.835259618 167.0
63.840183474 150.0
63.845107330 175.0
63.850031186 177.0
63.854955042 189.0
63.859878898 156.0
63.864802754 184.0
63.869726610 183.0
63.874650466 152.0
63.879574322 154.0
63.884498178 164.0
63.889422034 157.0
63.894345890 157.0
63.899269746 166.0
63.904193602 147.0
63.909117458 156.0
63.914041314 153.0
63.918965170 146.0
63.923889026 153.0
63.928812882 187.0
63.933736738 159.0
63.938660594 170.0
63.943584450 172.0
63.948508306 151.0
63.953432162 168.0
63.958356018 166.0
63.963279874 173.0
63.968203730 171.0
63.973127586 171.0
63.978051442 171.0
63.982975298 174.0
63.987899154 173.0
63.992823010 173.0
63.997746866 161.0
64.002670722 164.0
64.007594578 184.0
64.012518434 166.0
64.017442290 164.0
64.022366146 169.0
64.027290002 180.0
64.032213858 172.0
64.037137714 167.0
64.042061570 172.0
64.046985426 177.0
64.051909282 178.0
64.056833138 156.0
64.061756994 179.0
64.066680850 181.0
64.071604706 158.0
64.076528563 200.0
64.081452419 157.0
64.086376275 183.0
64.091300131 171.0
64.096223987 207.0
64.101147843 185.0
64.106071699 180.0
64.110995555 160.0
64.115919411 188.0
64.120843267 173.0
64.125767123 193.0
64.130690979 169.0
64.135614835 176.0
64.140538691 175.0
64.145462547 180.0
64.150386403 184.0
64.155310259 176.0
64.160234115 177.0
64.165157971 175.0
64.170081827 176.0
64.175005683 181.0
64.179929539 183.0
64.184853395 180.0
64.189777251 198.0
64.194701107 181.0
64.199624963 192.0
64.204548819 170.0
64.209472675 176.0
64.214396531 175.0
64.219320387 175.0
64.224244243 197.0
64.229168099 190.0
64.234091955 153.0
64.239015811 190.0
64.243939667 192.0
64.248863523 184.0
64.253787379 162.0
64.258711235 159.0
64.263635091 184.0
64.268558947 182.0
64.273482803 187.0
64.278406659 174.0
64.283330515 185.0
64.288254371 201.0
64.293178227 185.0
64.298102083 194.0
64.303025939 202.0
64.307949795 179.0
64.312873651 210.0
64.317797507 170.0
64.322721363 202.0
64.327645219 195.0
64.332569075 177.0
64.337492931 202.0
64.342416787 206.0
64.347340643 201.0
64.352264499 183.0
64.357188355 222.0
64.362112211 193.0
64.367036067 202.0
64.371959923 209.0
64.376883779 180.0
64.381807635 188.0
64.386731491 218.0
64.391655347 214.0
64.396579203 199.0
64.401503059 198.0
64.406426915 197.0
64.411350771 199.0
64.416274627 212.0
64.421198483 222.0
64.426122339 210.0
64.431046195 213.0
64.435970051 218.0
64.440893907 220.0
64.445817764 196.0
64.450741620 219.0
64.455665476 203.0
64.460589332 245.0
64.465513188 222.0
64.470437044 222.0
64.475360900 225.0
64.480284756 268.0
64.485208612 241.0
64.490132468 210.0
64.495056324 218.0
64.499980180 210.0
64.504904036 236.0
64.509827892 217.0
64.514751748 215.0
64.519675604 240.0
64.524599460 269.0
64.529523316 214.0
64.534447172 234.0
64.539371028 247.0
64.544294884 229.0
64.549218740 224.0
64.554142596 233.0
64.559066452 237.0
64.563990308 249.0
64.568914164 237.0
64.573838020 258.0
64.578761876 267.0
64.583685732 261.0
64.588609588 242.0
64.593533444 218.0
64.598457300 219.0
64.603381156 255.0
64.608305012 233.0
64.613228868 260.0
64.618152724 269.0
64.623076580 247.0
64.628000436 266.0
64.632924292 264.0
64.637848148 280.0
64.642772004 268.0
64.647695860 268.0
64.652619716 279.0
64.657543572 257.0
64.662467428 284.0
64.667391284 301.0
64.672315140 274.0
64.677238996 279.0
64.682162852 258.0
64.687086708 279.0
64.692010564 297.0
64.696934420 294.0
64.701858276 263.0
64.706782132 297.0
64.711705988 293.0
64.716629844 273.0
64.721553700 279.0
64.726477556 309.0
64.731401412 316.0
64.736325268 288.0
64.741249124 282.0
64.746172980 321.0
64.751096836 304.0
64.756020692 318.0
64.760944548 337.0
64.765868404 281.0
64.770792260 283.0
64.775716116 301.0
64.780639972 328.0
64.785563828 314.0
64.790487684 339.0
64.795411540 291.0
64.800335396 321.0
64.805259252 317.0
64.810183108 308.0
64.815106965 317.0
64.820030821 347.0
64.824954677 350.0
64.829878533 296.0
64.834802389 340.0
64.839726245 331.0
64.844650101 329.0
64.849573957 327.0
64.854497813 343.0
64.859421669 356.0
64.864345525 343.0
64.869269381 354.0
64.874193237 330.0
64.879117093 334.0
64.884040949 304.0
64.888964805 354.0
64.893888661 377.0
64.898812517 371.0
64.903736373 363.0
64.908660229 360.0
64.913584085 343.0
64.918507941 342.0
64.923431797 355.0
64.928355653 358.0
64.933279509 354.0
64.938203365 349.0
64.943127221 372.0
64.948051077 376.0
64.952974933 338.0
64.957898789 342.0
64.962822645 382.0
64.967746501 361.0
64.972670357 362.0
64.977594213 367.0
64.982518069 366.0
64.987441925 349.0
64.992365781 332.0
64.997289637 360.0
65.002213493 334.0
65.007137349 319.0
65.012061205 359.0
65.016985061 334.0
65.021908917 345.0
65.026832773 325.0
65.031756629 365.0
65.036680485 342.0
65.041604341 333.0
65.046528197 334.0
65.051452053 347.0
65.056375909 383.0
65.061299765 344.0
65.066223621 345.0
65.071147477 398.0
65.076071333 370.0
65.080995189 338.0
65.085919045 384.0
65.090842901 375.0
65.095766757 318.0
65.100690613 381.0
65.105614469 360.0
65.110538325 338.0
65.115462181 356.0
65.120386037 325.0
65.125309893 336.0
65.130233749 333.0
65.135157605 361.0
65.140081461 348.0
65.145005317 350.0
65.149929173 361.0
65.154853029 385.0
65.159776885 349.0
65.164700741 343.0
65.169624597 365.0
65.174548453 340.0
65.179472309 371.0
65.184396165 315.0
65.189320022 363.0
65.194243878 354.0
65.199167734 324.0
65.204091590 357.0
65.209015446 315.0
65.213939302 332.0
65.218863158 331.0
65.223787014 331.0
65.228710870 322.0
65.233634726 348.0
65.238558582 350.0
65.243482438 338.0
65.248406294 318.0
65.253330150 359.0
65.258254006 360.0
65.263177862 348.0
65.268101718 325.0
65.273025574 327.0
65.277949430 307.0
65.282873286 340.0
65.287797142 326.0
65.292720998 344.0
65.297644854 334.0
65.302568710 349.0
65.307492566 346.0
65.312416422 316.0
65.317340278 317.0
65.322264134 298.0
65.327187990 352.0
65.332111846 308.0
65.337035702 337.0
65.341959558 320.0
65.346883414 315.0
65.351807270 325.0
65.356731126 315.0
65.361654982 324.0
65.366578838 325.0
65.371502694 311.0
65.376426550 270.0
65.381350406 301.0
65.386274262 293.0
65.391198118 269.0
65.396121974 313.0
65.401045830 269.0
65.405969686 280.0
65.410893542 317.0
65.415817398 244.0
65.420741254 300.0
65.425665110 322.0
65.430588966 264.0
65.435512822 298.0
65.440436678 261.0
65.445360534 301.0
65.450284390 297.0
65.455208246 331.0
65.460132102 291.0
65.465055958 308.0
65.469979814 257.0
65.474903670 293.0
65.479827526 276.0
65.484751382 273.0
65.489675238 283.0
65.494599094 284.0
65.499522950 305.0
65.504446806 279.0
65.509370662 286.0
65.514294518 245.0
65.519218374 292.0
65.524142230 242.0
65.529066086 304.0
65.533989942 274.0
65.538913798 287.0
65.543837654 232.0
65.548761510 238.0
65.553685366 261.0
65.558609223 264.0
65.563533079 256.0
65.568456935 265.0
65.573380791 278.0
65.578304647 257.0
65.583228503 265.0
65.588152359 237.0
65.593076215 231.0
65.598000071 271.0
65.602923927 233.0
65.607847783 243.0
65.612771639 268.0
65.617695495 256.0
65.622619351 261.0
65.627543207 280.0
65.632467063 283.0
65.637390919 242.0
65.642314775 266.0
65.647238631 257.0
65.652162487 239.0
65.657086343 268.0
65.662010199 243.0
65.666934055 272.0
65.671857911 241.0
65.676781767 243.0
65.681705623 230.0
65.686629479 233.0
65.691553335 216.0
65.696477191 235.0
65.701401047 268.0
65.706324903 221.0
65.711248759 255.0
65.716172615 237.0
65.721096471 229.0
65.726020327 219.0
65.730944183 235.0
65.735868039 208.0
65.740791895 234.0
65.745715751 217.0
65.750639607 229.0
65.755563463 227.0
65.760487319 225.0
65.765411175 227.0
65.770335031 224.0
65.775258887 194.0
65.780182743 205.0
65.785106599 223.0
65.790030455 198.0
65.794954311 258.0
65.799878167 236.0
65.804802023 220.0
65.809725879 222.0
65.814649735 218.0
65.819573591 256.0
65.824497447 234.0
65.829421303 217.0
65.834345159 211.0
65.839269015 205.0
65.844192871 195.0
65.849116727 237.0
65.854040583 214.0
65.858964439 234.0
65.863888295 224.0
65.868812151 258.0
65.873736007 220.0
65.878659863 257.0
65.883583719 216.0
65.888507575 206.0
65.893431431 220.0
65.898355287 217.0
65.903279143 209.0
65.908202999 258.0
65.913126855 232.0
65.918050711 266.0
65.922974567 208.0
65.927898424 238.0
65.932822280 235.0
65.937746136 222.0
65.942669992 223.0
65.947593848 196.0
65.952517704 236.0
65.957441560 219.0
65.962365416 228.0
65.967289272 259.0
65.972213128 235.0
65.977136984 235.0
65.982060840 209.0
65.986984696 259.0
65.991908552 232.0
65.996832408 238.0
66.001756264 222.0
66.006680120 207.0
66.011603976 198.0
66.016527832 216.0
66.021451688 219.0
66.026375544 233.0
66.031299400 229.0
66.036223256 221.0
66.041147112 270.0
66.046070968 275.0
66.050994824 235.0
66.055918680 206.0
66.060842536 262.0
66.065766392 211.0
66.070690248 256.0
66.075614104 215.0
66.080537960 225.0
66.085461816 221.0
66.090385672 271.0
66.095309528 232.0
66.100233384 225.0
66.105157240 239.0
66.110081096 211.0
66.115004952 267.0
66.119928808 233.0
66.124852664 228.0
66.129776520 275.0
66.134700376 234.0
66.139624232 222.0
66.144548088 291.0
66.149471944 224.0
66.154395800 293.0
66.159319656 260.0
66.164243512 255.0
66.169167368 231.0
66.174091224 257.0
66.179015080 228.0
66.183938936 296.0
66.188862792 238.0
66.193786648 234.0
66.198710504 262.0
66.203634360 293.0
66.208558216 273.0
66.213482072 271.0
66.218405928 256.0
66.223329784 222.0
66.228253640 266.0
66.233177496 262.0
66.238101352 292.0
66.243025208 288.0
66.247949064 276.0
66.252872920 221.0
66.257796776 233.0
66.262720632 282.0
66.267644488 234.0
66.272568344 256.0
66.277492200 286.0
66.282416056 265.0
66.287339912 230.0
66.292263768 273.0
66.297187625 238.0
66.302111481 261.0
66.307035337 224.0
66.311959193 286.0
66.316883049 269.0
66.321806905 269.0
66.326730761 264.0
66.331654617 320.0
66.336578473 304.0
66.341502329 286.0
66.346426185 300.0
66.351350041 279.0
66.356273897 287.0
66.361197753 310.0
66.366121609 290.0
66.371045465 282.0
66.375969321 272.0
66.380893177 271.0
66.385817033 279.0
66.390740889 291.0
66.395664745 281.0
66.400588601 286.0
66.405512457 302.0
66.410436313 310.0
66.415360169 307.0
66.420284025 293.0
66.425207881 307.0
66.430131737 298.0
66.435055593 277.0
66.439979449 282.0
66.444903305 297.0
66.449827161 289.0
66.454751017 314.0
66.459674873 271.0
66.464598729 316.0
66.469522585 304.0
66.474446441 300.0
66.479370297 290.0
66.484294153 293.0
66.489218009 321.0
66.494141865 316.0
66.499065721 270.0
66.503989577 306.0
66.508913433 319.0
66.513837289 298.0
66.518761145 309.0
66.523685001 295.0
66.528608857 330.0
66.533532713 316.0
66.538456569 296.0
66.543380425 325.0
66.548304281 329.0
66.553228137 321.0
66.558151993 324.0
66.563075849 305.0
66.567999705 299.0
66.572923561 306.0
66.577847417 303.0
66.582771273 301.0
66.587695129 320.0
66.592618985 286.0
66.597542841 312.0
66.602466697 318.0
66.607390553 353.0
66.612314409 365.0
66.617238265 329.0
66.622162121 315.0
66.627085977 345.0
66.632009833 348.0
66.636933689 307.0
66.641857545 296.0
66.646781401 332.0
66.651705257 358.0
66.656629113 304.0
66.661552969 329.0
66.666476826 354.0
66.671400682 302.0
66.676324538 301.0
66.681248394 326.0
66.686172250 332.0
66.691096106 326.0
66.696019962 327.0
66.700943818 367.0
66.705867674 325.0
66.710791530 360.0
66.715715386 318.0
66.720639242 363.0
66.725563098 331.0
66.730486954 338.0
66.735410810 334.0
66.740334666 340.0
66.745258522 317.0
66.750182378 337.0
66.755106234 345.0
66.760030090 354.0
66.764953946 379.0
66.769877802 381.0
66.774801658 375.0
66.779725514 372.0
66.784649370 349.0
66.789573226 369.0
66.794497082 387.0
66.799420938 344.0
66.804344794 355.0
66.809268650 386.0
66.814192506 356.0
66.819116362 361.0
66.824040218 389.0
66.828964074 361.0
66.833887930 363.0
66.838811786 384.0
66.843735642 395.0
66.848659498 380.0
66.853583354 377.0
66.858507210 384.0
66.863431066 393.0
66.868354922 376.0
66.873278778 390.0
66.878202634 412.0
66.883126490 391.0
66.888050346 382.0
66.892974202 360.0
66.897898058 409.0
66.902821914 392.0
66.907745770 412.0
66.912669626 401.0
66.917593482 384.0
66.922517338 394.0
66.927441194 394.0
66.932365050 382.0
66.937288906 389.0
66.942212762 420.0
66.947136618 364.0
66.952060474 438.0
66.956984330 361.0
66.961908186 399.0
66.966832042 445.0
66.971755898 390.0
66.976679754 399.0
66.981603610 383.0
66.986527466 426.0
66.991451322 418.0
66.996375178 400.0
67.001299034 425.0
67.006222890 426.0
67.011146746 419.0
67.016070602 420.0
67.020994458 398.0
67.025918314 405.0
67.030842170 439.0
67.035766026 381.0
67.040689883 418.0
67.045613739 447.0
67.050537595 426.0
67.055461451 423.0
67.060385307 431.0
67.065309163 418.0
67.070233019 417.0
67.075156875 451.0
67.080080731 429.0
67.085004587 446.0
67.089928443 427.0
67.094852299 460.0
67.099776155 441.0
67.104700011 452.0
67.109623867 446.0
67.114547723 443.0
67.119471579 458.0
67.124395435 428.0
67.129319291 410.0
67.134243147 470.0
67.139167003 460.0
67.144090859 485.0
67.149014715 440.0
67.153938571 462.0
67.158862427 459.0
67.163786283 476.0
67.168710139 463.0
67.173633995 477.0
67.178557851 475.0
67.183481707 468.0
67.188405563 422.0
67.193329419 494.0
67.198253275 445.0
67.203177131 486.0
67.208100987 478.0
67.213024843 521.0
67.217948699 506.0
67.222872555 565.0
67.227796411 531.0
67.232720267 490.0
67.237644123 508.0
67.242567979 512.0
67.247491835 528.0
67.252415691 520.0
67.257339547 529.0
67.262263403 480.0
67.267187259 509.0
67.272111115 542.0
67.277034971 503.0
67.281958827 495.0
67.286882683 512.0
67.291806539 535.0
67.296730395 546.0
67.301654251 514.0
67.306578107 538.0
67.311501963 558.0
67.316425819 539.0
67.321349675 534.0
67.326273531 530.0
67.331197387 584.0
67.336121243 540.0
67.341045099 576.0
67.345968955 571.0
67.350892811 611.0
67.355816667 562.0
67.360740523 574.0
67.365664379 611.0
67.370588235 619.0
67.375512091 575.0
67.380435947 637.0
67.385359803 571.0
67.390283659 612.0
67.395207515 629.0
67.400131371 600.0
67.405055227 557.0
67.409979084 628.0
67.414902940 607.0
67.419826796 606.0
67.424750652 629.0
67.429674508 612.0
67.434598364 658.0
67.439522220 634.0
67.444446076 633.0
67.449369932 606.0
67.454293788 672.0
67.459217644 660.0
67.464141500 684.0
67.469065356 686.0
67.473989212 644.0
67.478913068 674.0
67.483836924 663.0
67.488760780 672.0
67.493684636 663.0
67.498608492 673.0
67.503532348 731.0
67.508456204 686.0
67.513380060 734.0
67.518303916 696.0
67.523227772 702.0
67.528151628 759.0
67.533075484 722.0
67.537999340 719.0
67.542923196 731.0
67.547847052 752.0
67.552770908 744.0
67.557694764 775.0
67.562618620 694.0
67.567542476 786.0
67.572466332 784.0
67.577390188 800.0
67.582314044 756.0
67.587237900 837.0
67.592161756 799.0
67.597085612 869.0
67.602009468 837.0
67.606933324 830.0
67.611857180 889.0
67.616781036 919.0
67.621704892 879.0
67.626628748 868.0
67.631552604 885.0
67.636476460 939.0
67.641400316 890.0
67.646324172 938.0
67.651248028 894.0
67.656171884 986.0
67.661095740 920.0
67.666019596 998.0
67.670943452 1042.0
67.675867308 1008.0
67.680791164 1063.0
67.685715020 1045.0
67.690638876 1104.0
67.695562732 1150.0
67.700486588 1145.0
67.705410444 1198.0
67.710334300 1250.0
67.715258156 1287.0
67.720182012 1389.0
67.725105868 1340.0
67.730029724 1364.0
67.734953580 1550.0
67.739877436 1598.0
67.744801292 1615.0
67.749725148 1663.0
67.754649004 1743.0
67.759572860 1925.0
67.764496716 2003.0
67.769420572 2004.0
67.774344428 2181.0
67.779268285 2233.0
67.784192141 2379.0
67.789115997 2479.0
67.794039853 2428.0
67.798963709 2550.0
67.803887565 2630.0
67.808811421 2799.0
67.813735277 2647.0
67.818659133 2849.0
67.823582989 2834.0
67.828506845 3090.0
67.833430701 2873.0
67.838354557 3037.0
67.843278413 2930.0
67.848202269 2978.0
67.853126125 2961.0
67.858049981 3011.0
67.862973837 2909.0
67.867897693 2939.0
67.872821549 2985.0
67.877745405 2823.0
67.882669261 2874.0
67.887593117 2706.0
67.892516973 2779.0
67.897440829 2686.0
67.902364685 2831.0
67.907288541 2707.0
67.912212397 2875.0
67.917136253 2750.0
67.922060109 2878.0
67.926983965 2886.0
67.931907821 3020.0
67.936831677 3014.0
67.941755533 3033.0
67.946679389 3206.0
67.951603245 3289.0
67.956527101 3365.0
67.961450957 3500.0
67.966374813 3653.0
67.971298669 3869.0
67.976222525 3976.0
67.981146381 3955.0
67.986070237 4427.0
67.990994093 4352.0
67.995917949 4687.0
68.000841805 4925.0
68.005765661 5272.0
68.010689517 5614.0
68.015613373 5920.0
68.020537229 6532.0
68.025461085 6563.0
68.030384941 7391.0
68.035308797 7745.0
68.040232653 8548.0
68.045156509 9414.0
68.050080365 10013.0
68.055004221 11339.0
68.059928077 12055.0
68.064851933 14104.0
68.069775789 14814.0
68.074699645 17617.0
68.079623501 19462.0
68.084547357 22967.0
68.089471213 26787.0
68.094395069 31182.0
68.099318925 40225.0
68.104242781 46953.0
68.109166637 67856.0
68.114090493 81585.0
68.119014349 127738.0
68.123938205 146634.0
68.128862061 203753.0
68.133785917 216961.0
68.138709773 251057.0
68.143633629 256872.0
68.148557486 274361.0
68.153481342 274564.0
68.158405198 278487.0
68.163329054 273079.0
68.168252910 253613.0
68.173176766 239635.0
68.178100622 188861.0
68.183024478 168593.0
68.187948334 114806.0
68.192872190 100999.0
68.197796046 70476.0
68.202719902 63224.0
68.207643758 45774.0
68.212567614 41464.0
68.217491470 31470.0
68.222415326 28954.0
68.227339182 23270.0
68.232263038 21603.0
68.237186894 18746.0
68.242110750 17700.0
68.247034606 16160.0
68.251958462 15895.0
68.256882318 15287.0
68.261806174 15445.0
68.266730030 15753.0
68.271653886 16526.0
68.276577742 17604.0
68.281501598 19335.0
68.286425454 21927.0
68.291349310 25360.0
68.296273166 30525.0
68.301197022 37796.0
68.306120878 48222.0
68.311044734 62315.0
68.315968590 78237.0
68.320892446 94886.0
68.325816302 108879.0
68.330740158 121026.0
68.335664014 130196.0
68.340587870 135069.0
68.345511726 137611.0
68.350435582 137745.0
68.355359438 134254.0
68.360283294 126888.0
68.365207150 117252.0
68.370131006 101268.0
68.375054862 85272.0
68.379978718 68757.0
68.384902574 55108.0
68.389826430 43606.0
68.394750286 34406.0
68.399674142 28005.0
68.404597998 22428.0
68.409521854 18641.0
68.414445710 15690.0
68.419369566 13619.0
68.424293422 11771.0
68.429217278 10306.0
68.434141134 9125.0
68.439064990 8207.0
68.443988846 7309.0
68.448912702 6874.0
68.453836558 6271.0
68.458760414 5976.0
68.463684270 5535.0
68.468608126 5207.0
68.473531982 4963.0
68.478455838 4656.0
68.483379694 4457.0
68.488303550 4147.0
68.493227406 4072.0
68.498151262 3731.0
68.503075118 3615.0
68.507998974 3518.0
68.512922830 3342.0
68.517846687 3317.0
68.522770543 3192.0
68.527694399 3029.0
68.532618255 2943.0
68.537542111 2882.0
68.542465967 2701.0
68.547389823 2639.0
68.552313679 2518.0
68.557237535 2545.0
68.562161391 2447.0
68.567085247 2368.0
68.572009103 2304.0
68.576932959 2206.0
68.581856815 2190.0
68.586780671 2195.0
68.591704527 2095.0
68.596628383 2081.0
68.601552239 2007.0
68.606476095 1931.0
68.611399951 1826.0
68.616323807 1931.0
68.621247663 1804.0
68.626171519 1686.0
68.631095375 1706.0
68.636019231 1669.0
68.640943087 1704.0
68.645866943 1615.0
68.650790799 1624.0
68.655714655 1553.0
68.660638511 1487.0
68.665562367 1555.0
68.670486223 1507.0
68.675410079 1419.0
68.680333935 1447.0
68.685257791 1326.0
68.690181647 1407.0
68.695105503 1346.0
68.700029359 1328.0
68.704953215 1340.0
68.709877071 1278.0
68.714800927 1248.0
68.719724783 1291.0
68.724648639 1219.0
68.729572495 1211.0
68.734496351 1221.0
68.739420207 1175.0
68.744344063 1171.0
68.749267919 1163.0
68.754191775 1166.0
68.759115631 1069.0
68.764039487 1079.0
68.768963343 1133.0
68.773887199 1053.0
68.778811055 1043.0
68.783734911 1017.0
68.788658767 998.0
68.793582623 1080.0
68.798506479 977.0
68.803430335 968.0
68.808354191 977.0
68.813278047 929.0
68.818201903 868.0
68.823125759 942.0
68.828049615 949.0
68.832973471 874.0
68.837897327 846.0
68.842821183 868.0
68.847745039 876.0
68.852668895 816.0
68.857592751 846.0
68.862516607 883.0
68.867440463 823.0
68.872364319 819.0
68.877288175 818.0
68.882212031 804.0
68.887135887 808.0
68.892059744 768.0
68.896983600 797.0
68.901907456 743.0
68.906831312 757.0
68.911755168 716.0
68.916679024 756.0
68.921602880 767.0
68.926526736 683.0
68.931450592 696.0
68.936374448 738.0
68.941298304 710.0
68.946222160 709.0
68.951146016 718.0
68.956069872 672.0
68.960993728 665.0
68.965917584 674.0
68.970841440 656.0
68.975765296 683.0
68.980689152 710.0
68.985613008 655.0
68.990536864 660.0
68.995460720 670.0
69.000384576 675.0
69.005308432 649.0
69.010232288 647.0
69.015156144 610.0
69.020080000 602.0
69.025003856 587.0
69.029927712 638.0
69.034851568 608.0
69.039775424 613.0
69.044699280 586.0
69.049623136 624.0
69.054546992 591.0
69.059470848 564.0
69.064394704 603.0
69.069318560 608.0
69.074242416 594.0
69.079166272 569.0
69.084090128 581.0
69.089013984 622.0
69.093937840 555.0
69.098861696 593.0
69.103785552 526.0
69.108709408 508.0
69.113633264 517.0
69.118557120 565.0
69.123480976 500.0
69.128404832 555.0
69.133328688 491.0
69.138252544 498.0
69.143176400 527.0
69.148100256 526.0
69.153024112 491.0
69.157947968 544.0
69.162871824 482.0
69.167795680 452.0
69.172719536 446.0
69.177643392 498.0
69.182567248 482.0
69.187491104 490.0
69.192414960 491.0
69.197338816 457.0
69.202262672 456.0
69.207186528 451.0
69.212110384 470.0
69.217034240 459.0
69.221958096 494.0
69.226881952 493.0
69.231805808 416.0
69.236729664 465.0
69.241653520 442.0
69.246577376 472.0
69.251501232 441.0
69.256425088 427.0
69.261348945 471.0
69.266272801 471.0
69.271196657 407.0
69.276120513 447.0
69.281044369 441.0
69.285968225 432.0
69.290892081 383.0
69.295815937 424.0
69.300739793 413.0
69.305663649 428.0
69.310587505 413.0
69.315511361 366.0
69.320435217 403.0
69.325359073 414.0
69.330282929 410.0
69.335206785 400.0
69.340130641 447.0
69.345054497 407.0
69.349978353 412.0
69.354902209 398.0
69.359826065 416.0
69.364749921 384.0
69.369673777 422.0
69.374597633 357.0
69.379521489 380.0
69.384445345 400.0
69.389369201 384.0
69.394293057 365.0
69.399216913 392.0
69.404140769 355.0
69.409064625 348.0
69.413988481 360.0
69.418912337 360.0
69.423836193 319.0
69.428760049 368.0
69.433683905 351.0
69.438607761 337.0
69.443531617 339.0
69.448455473 349.0
69.453379329 367.0
69.458303185 369.0
69.463227041 339.0
69.468150897 352.0
69.473074753 349.0
69.477998609 341.0
69.482922465 340.0
69.487846321 349.0
69.492770177 341.0
69.497694033 346.0
69.502617889 304.0
69.507541745 298.0
69.512465601 314.0
69.517389457 328.0
69.522313313 315.0
69.527237169 323.0
69.532161025 292.0
69.537084881 342.0
69.542008737 318.0
69.546932593 331.0
69.551856449 313.0
69.556780305 304.0
69.561704161 307.0
69.566628017 292.0
69.571551873 313.0
69.576475729 291.0
69.581399585 321.0
69.586323441 268.0
69.591247297 295.0
69.596171153 292.0
69.601095009 305.0
69.606018865 307.0
69.610942721 315.0
69.615866577 288.0
69.620790433 269.0
69.625714289 304.0
69.630638146 274.0
69.635562002 281.0
69.640485858 308.0
69.645409714 293.0
69.650333570 316.0
69.655257426 275.0
69.660181282 314.0
69.665105138 275.0
69.670028994 269.0
69.674952850 282.0
69.679876706 267.0
69.684800562 265.0
69.689724418 291.0
69.694648274 268.0
69.699572130 217.0
69.704495986 307.0
69.709419842 222.0
69.714343698 264.0
69.719267554 276.0
69.724191410 236.0
69.729115266 262.0
69.734039122 258.0
69.738962978 237.0
69.743886834 289.0
69.748810690 261.0
69.753734546 260.0
69.758658402 229.0
69.763582258 290.0
69.768506114 291.0
69.773429970 264.0
69.778353826 274.0
69.783277682 235.0
69.788201538 214.0
69.793125394 227.0
69.798049250 235.0
69.802973106 236.0
69.807896962 236.0
69.812820818 199.0
69.817744674 278.0
69.822668530 281.0
69.827592386 229.0
69.832516242 218.0
69.837440098 261.0
69.842363954 217.0
69.847287810 207.0
69.852211666 221.0
69.857135522 261.0
69.862059378 201.0
69.866983234 224.0
69.871907090 257.0
69.876830946 224.0
69.881754802 243.0
69.886678658 221.0
69.891602514 222.0
69.896526370 210.0
69.901450226 222.0
69.906374082 233.0
69.911297938 223.0
69.916221794 231.0
69.921145650 243.0
69.926069506 226.0
69.930993362 211.0
69.935917218 236.0
69.940841074 225.0
69.945764930 224.0
69.950688786 227.0
69.955612642 204.0
69.960536498 210.0
69.965460354 238.0
69.970384210 187.0
69.975308066 232.0
69.980231922 221.0
69.985155778 216.0
69.990079634 213.0
69.995003490 205.0
69.999927347 232.0
70.004851203 226.0
70.009775059 198.0
70.014698915 215.0
70.019622771 220.0
70.024546627 221.0
70.029470483 225.0
70.034394339 222.0
70.039318195 219.0
70.044242051 205.0
70.049165907 211.0
70.054089763 199.0
70.059013619 231.0
70.063937475 229.0
70.068861331 225.0
70.073785187 188.0
70.078709043 179.0
70.083632899 220.0
70.088556755 217.0
70.093480611 203.0
70.098404467 208.0
70.103328323 220.0
70.108252179 206.0
70.113176035 214.0
70.118099891 239.0
70.123023747 193.0
70.127947603 220.0
70.132871459 222.0
70.137795315 185.0
70.142719171 172.0
70.147643027 209.0
70.152566883 189.0
70.157490739 203.0
70.162414595 194.0
70.167338451 185.0
70.172262307 209.0
70.177186163 193.0
70.182110019 201.0
70.187033875 171.0
70.191957731 225.0
70.196881587 197.0
70.201805443 194.0
70.206729299 212.0
70.211653155 211.0
70.216577011 192.0
70.221500867 197.0
70.226424723 193.0
70.231348579 196.0
70.236272435 204.0
70.241196291 215.0
70.246120147 213.0
70.251044003 186.0
70.255967859 203.0
70.260891715 210.0
70.265815571 203.0
70.270739427 192.0
70.275663283 193.0
70.280587139 192.0
70.285510995 213.0
70.290434851 186.0
70.295358707 198.0
70.300282563 173.0
70.305206419 207.0
70.310130275 185.0
70.315054131 206.0
70.319977987 206.0
70.324901843 194.0
70.329825699 163.0
70.334749555 210.0
70.339673411 188.0
70.344597267 181.0
70.349521123 193.0
70.354444979 216.0
70.359368835 181.0
70.364292691 163.0
70.369216548 192.0
70.374140404 203.0
70.379064260 184.0
70.383988116 154.0
70.388911972 210.0
70.393835828 199.0
70.398759684 181.0
70.403683540 204.0
70.408607396 168.0
70.413531252 185.0
70.418455108 197.0
70.423378964 182.0
70.428302820 191.0
70.433226676 200.0
70.438150532 196.0
70.443074388 183.0
70.447998244 213.0
70.452922100 196.0
70.457845956 192.0
70.462769812 194.0
70.467693668 187.0
70.472617524 178.0
70.477541380 183.0
70.482465236 184.0
70.487389092 186.0
70.492312948 203.0
70.497236804 177.0
70.502160660 181.0
70.507084516 219.0
70.512008372 196.0
70.516932228 171.0
70.521856084 169.0
70.526779940 178.0
70.531703796 213.0
70.536627652 194.0
70.541551508 187.0
70.546475364 178.0
70.551399220 180.0
70.556323076 192.0
70.561246932 192.0
70.566170788 195.0
70.571094644 180.0
70.576018500 194.0
70.580942356 192.0
70.585866212 199.0
70.590790068 181.0
70.595713924 195.0
70.600637780 205.0
70.605561636 185.0
70.610485492 179.0
70.615409348 213.0
70.620333204 180.0
70.625257060 203.0
70.630180916 182.0
70.635104772 179.0
70.640028628 209.0
70.644952484 171.0
70.649876340 201.0
70.654800196 198.0
70.659724052 190.0
70.664647908 166.0
70.669571764 158.0
70.674495620 174.0
70.679419476 185.0
70.684343332 195.0
70.689267188 196.0
70.694191044 169.0
70.699114900 201.0
70.704038756 195.0
70.708962612 166.0
70.713886468 193.0
70.718810324 172.0
70.723734180 179.0
70.728658036 178.0
70.733581892 221.0
70.738505748 190.0
70.743429605 208.0
70.748353461 212.0
70.753277317 182.0
70.758201173 185.0
70.763125029 183.0
70.768048885 185.0
70.772972741 175.0
70.777896597 181.0
70.782820453 165.0
70.787744309 188.0
70.792668165 180.0
70.797592021 183.0
70.802515877 179.0
70.807439733 188.0
70.812363589 164.0
70.817287445 190.0
70.822211301 183.0
70.827135157 201.0
70.832059013 183.0
70.836982869 162.0
70.841906725 175.0
70.846830581 188.0
70.851754437 158.0
70.856678293 172.0
70.861602149 169.0
70.866526005 170.0
70.871449861 204.0
70.876373717 183.0
70.881297573 206.0
70.886221429 177.0
70.891145285 184.0
70.896069141 170.0
70.900992997 168.0
70.905916853 157.0
70.910840709 183.0
70.915764565 165.0
70.920688421 145.0
70.925612277 174.0
70.930536133 160.0
70.935459989 177.0
70.940383845 174.0
70.945307701 181.0
70.950231557 197.0
70.955155413 163.0
70.960079269 166.0
70.965003125 190.0
70.969926981 177.0
70.974850837 179.0
70.979774693 165.0
70.984698549 183.0
70.989622405 168.0
70.994546261 211.0
70.999470117 167.0
71.004393973 190.0
71.009317829 174.0
71.014241685 166.0
71.019165541 164.0
71.024089397 175.0
71.029013253 160.0
71.033937109 171.0
71.038860965 156.0
71.043784821 163.0
71.048708677 154.0
71.053632533 168.0
71.058556389 180.0
71.063480245 155.0
71.068404101 159.0
71.073327957 152.0
71.078251813 177.0
71.083175669 178.0
71.088099525 179.0
71.093023381 157.0
71.097947237 177.0
71.102871093 189.0
71.107794949 164.0
71.112718806 172.0
71.117642662 187.0
71.122566518 173.0
71.127490374 175.0
71.132414230 167.0
71.137338086 167.0
71.142261942 178.0
71.147185798 203.0
71.152109654 181.0
71.157033510 178.0
71.161957366 157.0
71.166881222 177.0
71.171805078 163.0
71.176728934 172.0
71.181652790 216.0
71.186576646 172.0
71.191500502 182.0
71.196424358 173.0
71.201348214 187.0
71.206272070 155.0
71.211195926 172.0
71.216119782 158.0
71.221043638 176.0
71.225967494 178.0
71.230891350 156.0
71.235815206 158.0
71.240739062 183.0
71.245662918 167.0
71.250586774 166.0
71.255510630 170.0
71.260434486 177.0
71.265358342 180.0
71.270282198 184.0
71.275206054 157.0
71.280129910 185.0
71.285053766 162.0
71.289977622 154.0
71.294901478 185.0
71.299825334 154.0
71.304749190 168.0
71.309673046 162.0
71.314596902 150.0
71.319520758 181.0
71.324444614 155.0
71.329368470 166.0
71.334292326 155.0
71.339216182 143.0
71.344140038 159.0
71.349063894 172.0
71.353987750 197.0
71.358911606 164.0
71.363835462 147.0
71.368759318 171.0
71.373683174 160.0
71.378607030 172.0
71.383530886 179.0
71.388454742 173.0
71.393378598 183.0
71.398302454 198.0
71.403226310 180.0
71.408150166 181.0
71.413074022 157.0
71.417997878 164.0
71.422921734 169.0
71.427845590 158.0
71.432769446 173.0
71.437693302 167.0
71.442617158 167.0
71.447541014 182.0
71.452464870 142.0
71.457388726 165.0
71.462312582 172.0
71.467236438 148.0
71.472160294 191.0
71.477084150 167.0
71.482008007 173.0
71.486931863 175.0
71.491855719 160.0
71.496779575 174.0
71.501703431 161.0
71.506627287 147.0
71.511551143 163.0
71.516474999 177.0
71.521398855 157.0
71.526322711 181.0
71.531246567 180.0
71.536170423 161.0
71.541094279 179.0
71.546018135 168.0
71.550941991 175.0
71.555865847 149.0
71.560789703 141.0
71.565713559 174.0
71.570637415 162.0
71.575561271 187.0
71.580485127 165.0
71.585408983 179.0
71.590332839 154.0
71.595256695 149.0
71.600180551 186.0
71.605104407 166.0
71.610028263 162.0
71.614952119 181.0
71.619875975 184.0
71.624799831 158.0
71.629723687 165.0
71.634647543 149.0
71.639571399 159.0
71.644495255 170.0
71.649419111 159.0
71.654342967 160.0
71.659266823 172.0
71.664190679 162.0
71.669114535 167.0
71.674038391 160.0
71.678962247 187.0
71.683886103 165.0
71.688809959 178.0
71.693733815 188.0
71.698657671 159.0
71.703581527 162.0
71.708505383 161.0
71.713429239 161.0
71.718353095 150.0
71.723276951 174.0
71.728200807 181.0
71.733124663 159.0
71.738048519 156.0
71.742972375 171.0
71.747896231 155.0
71.752820087 154.0
71.757743943 200.0
71.762667799 146.0
71.767591655 144.0
71.772515511 163.0
71.777439367 153.0
71.782363223 153.0
71.787287079 171.0
71.792210935 166.0
71.797134791 183.0
71.802058647 157.0
71.806982503 182.0
71.811906359 154.0
71.816830215 157.0
71.821754071 180.0
71.826677927 165.0
71.831601783 185.0
71.836525639 171.0
71.841449495 173.0
71.846373351 166.0
71.851297208 164.0
71.856221064 152.0
71.861144920 158.0
71.866068776 183.0
71.870992632 169.0
71.875916488 158.0
71.880840344 158.0
71.885764200 171.0
71.890688056 155.0
71.895611912 159.0
71.900535768 193.0
71.905459624 186.0
71.910383480 180.0
71.915307336 153.0
71.920231192 146.0
71.925155048 159.0
71.930078904 150.0
71.935002760 176.0
71.939926616 159.0
71.944850472 168.0
71.949774328 155.0
71.954698184 180.0
71.959622040 168.0
71.964545896 179.0
71.969469752 159.0
71.974393608 157.0
71.979317464 157.0
71.984241320 165.0
71.989165176 177.0
71.994089032 166.0
71.999012888 184.0
72.003936744 166.0
72.008860600 174.0
72.013784456 186.0
72.018708312 151.0
72.023632168 156.0
72.028556024 167.0
72.033479880 181.0
72.038403736 170.0
72.043327592 176.0
72.048251448 174.0
72.053175304 157.0
72.058099160 150.0
72.063023016 162.0
72.067946872 173.0
72.072870728 153.0
72.077794584 166.0
72.082718440 156.0
72.087642296 157.0
72.092566152 166.0
72.097490008 135.0
72.102413864 173.0
72.107337720 176.0
72.112261576 187.0
72.117185432 156.0
72.122109288 170.0
72.127033144 194.0
72.131957000 169.0
72.136880856 170.0
72.141804712 150.0
72.146728568 147.0
72.151652424 146.0
72.156576280 139.0
72.161500136 132.0
72.166423992 195.0
72.171347848 169.0
72.176271704 173.0
72.181195560 171.0
72.186119416 170.0
72.191043272 164.0
72.195967128 161.0
72.200890984 158.0
72.205814840 168.0
72.210738696 147.0
72.215662552 138.0
72.220586409 150.0
72.225510265 169.0
72.230434121 167.0
72.235357977 153.0
72.240281833 142.0
72.245205689 152.0
72.250129545 184.0
72.255053401 162.0
72.259977257 152.0
72.264901113 153.0
72.269824969 152.0
72.274748825 161.0
72.279672681 130.0
72.284596537 141.0
72.289520393 165.0
72.294444249 162.0
72.299368105 193.0
72.304291961 157.0
72.309215817 157.0
72.314139673 153.0
72.319063529 149.0
72.323987385 139.0
72.328911241 180.0
72.333835097 134.0
72.338758953 177.0
72.343682809 154.0
72.348606665 184.0
72.353530521 150.0
72.358454377 157.0
72.363378233 159.0
72.368302089 161.0
72.373225945 164.0
72.378149801 164.0
72.383073657 167.0
72.387997513 174.0
72.392921369 160.0
72.397845225 177.0
72.402769081 149.0
72.407692937 151.0
72.412616793 170.0
72.417540649 151.0
72.422464505 155.0
72.427388361 149.0
72.432312217 160.0
72.437236073 165.0
72.442159929 149.0
72.447083785 143.0
72.452007641 160.0
72.456931497 159.0
72.461855353 160.0
72.466779209 165.0
72.471703065 147.0
72.476626921 144.0
72.481550777 163.0
72.486474633 156.0
72.491398489 172.0
72.496322345 149.0
72.501246201 156.0
72.506170057 177.0
72.511093913 176.0
72.516017769 147.0
72.520941625 154.0
72.525865481 155.0
72.530789337 162.0
72.535713193 164.0
72.540637049 170.0
72.545560905 174.0
72.550484761 168.0
72.555408617 135.0
72.560332473 162.0
72.565256329 137.0
72.570180185 158.0
72.575104041 174.0
72.580027897 135.0
72.584951753 173.0
72.589875609 163.0
72.594799466 158.0
72.599723322 147.0
72.604647178 161.0
72.609571034 154.0
72.614494890 162.0
72.619418746 167.0
72.624342602 157.0
72.629266458 172.0
72.634190314 149.0
72.639114170 152.0
72.644038026 159.0
72.648961882 151.0
72.653885738 146.0
72.658809594 149.0
72.663733450 177.0
72.668657306 153.0
72.673581162 151.0
72.678505018 158.0
72.683428874 155.0
72.688352730 172.0
72.693276586 157.0
72.698200442 165.0
72.703124298 184.0
72.708048154 170.0
72.712972010 155.0
72.717895866 178.0
72.722819722 164.0
72.727743578 130.0
72.732667434 133.0
72.737591290 138.0
72.742515146 162.0
72.747439002 170.0
72.752362858 171.0
72.757286714 146.0
72.762210570 141.0
72.767134426 157.0
72.772058282 181.0
72.776982138 157.0
72.781905994 173.0
72.786829850 140.0
72.791753706 158.0
72.796677562 157.0
72.801601418 179.0
72.806525274 160.0
72.811449130 167.0
72.816372986 140.0
72.821296842 173.0
72.826220698 153.0
72.831144554 144.0
72.836068410 149.0
72.840992266 149.0
72.845916122 169.0
72.850839978 127.0
72.855763834 165.0
72.860687690 144.0
72.865611546 160.0
72.870535402 171.0
72.875459258 155.0
72.880383114 153.0
72.885306970 175.0
72.890230826 143.0
72.895154682 162.0
72.900078538 124.0
72.905002394 158.0
72.909926250 171.0
72.914850106 152.0
72.919773962 163.0
72.924697818 178.0
72.929621674 170.0
72.934545530 154.0
72.939469386 165.0
72.944393242 161.0
72.949317098 152.0
72.954240954 172.0
72.959164810 169.0
72.964088667 132.0
72.969012523 147.0
72.973936379 136.0
72.978860235 169.0
72.983784091 167.0
72.988707947 157.0
72.993631803 157.0
72.998555659 148.0
73.003479515 154.0
73.008403371 150.0
73.013327227 172.0
73.018251083 159.0
73.023174939 188.0
73.028098795 150.0
73.033022651 156.0
73.037946507 157.0
73.042870363 172.0
73.047794219 159.0
73.052718075 156.0
73.057641931 162.0
73.062565787 145.0
73.067489643 146.0
73.072413499 158.0
73.077337355 150.0
73.082261211 160.0
73.087185067 136.0
73.092108923 156.0
73.097032779 158.0
73.101956635 159.0
73.106880491 162.0
73.111804347 134.0
73.116728203 140.0
73.121652059 139.0
73.126575915 167.0
73.131499771 160.0
73.136423627 155.0
73.141347483 160.0
73.146271339 149.0
73.151195195 163.0
73.156119051 152.0
73.161042907 151.0
73.165966763 150.0
73.170890619 135.0
73.175814475 150.0
73.180738331 145.0
73.185662187 159.0
73.190586043 153.0
73.195509899 166.0
73.200433755 146.0
73.205357611 158.0
73.210281467 160.0
73.215205323 141.0
73.220129179 150.0
73.225053035 165.0
73.229976891 152.0
73.234900747 153.0
73.239824603 166.0
73.244748459 171.0
73.249672315 150.0
73.254596171 146.0
73.259520027 155.0
73.264443883 171.0
73.269367739 162.0
73.274291595 140.0
73.279215451 172.0
73.284139307 142.0
73.289063163 175.0
73.293987019 121.0
73.298910875 139.0
73.303834731 135.0
73.308758587 156.0
73.313682443 149.0
73.318606299 159.0
73.323530155 160.0
73.328454011 141.0
73.333377868 161.0
73.338301724 156.0
73.343225580 158.0
73.348149436 147.0
73.353073292 140.0
73.357997148 159.0
73.362921004 156.0
73.367844860 150.0
73.372768716 149.0
73.377692572 152.0
73.382616428 153.0
73.387540284 151.0
73.392464140 174.0
73.397387996 162.0
73.402311852 166.0
73.407235708 172.0
73.412159564 149.0
73.417083420 129.0
73.422007276 166.0
73.426931132 150.0
73.431854988 142.0
73.436778844 139.0
73.441702700 126.0
73.446626556 136.0
73.451550412 162.0
73.456474268 162.0
73.461398124 161.0
73.466321980 139.0
73.471245836 143.0
73.476169692 149.0
73.481093548 164.0
73.486017404 164.0
73.490941260 155.0
73.495865116 161.0
73.500788972 161.0
73.505712828 150.0
73.510636684 145.0
73.515560540 148.0
73.520484396 171.0
73.525408252 148.0
73.530332108 132.0
73.535255964 158.0
73.540179820 133.0
73.545103676 155.0
73.550027532 143.0
73.554951388 158.0
73.559875244 147.0
73.564799100 169.0
73.569722956 167.0
73.574646812 188.0
73.579570668 135.0
73.584494524 171.0
73.589418380 168.0
73.594342236 152.0
73.599266092 160.0
73.604189948 158.0
73.609113804 170.0
73.614037660 144.0
73.618961516 164.0
73.623885372 151.0
73.628809228 151.0
73.633733084 169.0
73.638656940 174.0
73.643580796 160.0
73.648504652 173.0
73.653428508 144.0
73.658352364 165.0
73.663276220 164.0
73.668200076 162.0
73.673123932 167.0
73.678047788 156.0
73.682971644 170.0
73.687895500 151.0
73.692819356 162.0
73.697743212 163.0
73.702667069 133.0
73.707590925 157.0
73.712514781 164.0
73.717438637 145.0
73.722362493 165.0
73.727286349 153.0
73.732210205 147.0
73.737134061 153.0
73.742057917 133.0
73.746981773 151.0
73.751905629 149.0
73.756829485 164.0
73.761753341 181.0
73.766677197 153.0
73.771601053 160.0
73.776524909 153.0
73.781448765 150.0
73.786372621 131.0
73.791296477 159.0
73.796220333 157.0
73.801144189 173.0
73.806068045 158.0
73.810991901 138.0
73.815915757 156.0
73.820839613 162.0
73.825763469 162.0
73.830687325 154.0
73.835611181 174.0
73.840535037 128.0
73.845458893 162.0
73.850382749 166.0
73.855306605 154.0
73.860230461 167.0
73.865154317 157.0
73.870078173 132.0
73.875002029 164.0
73.879925885 139.0
73.884849741 159.0
73.889773597 162.0
73.894697453 160.0
73.899621309 157.0
73.904545165 180.0
73.909469021 166.0
73.914392877 165.0
73.919316733 165.0
73.924240589 161.0
73.929164445 134.0
73.934088301 135.0
73.939012157 160.0
73.943936013 173.0
73.948859869 152.0
73.953783725 152.0
73.958707581 140.0
73.963631437 175.0
73.968555293 139.0
73.973479149 147.0
73.978403005 141.0
73.983326861 146.0
73.988250717 148.0
73.993174573 150.0
73.998098429 176.0
74.003022285 150.0
74.007946141 170.0
74.012869997 136.0
74.017793853 164.0
74.022717709 144.0
74.027641565 170.0
74.032565421 163.0
74.037489277 145.0
74.042413133 160.0
74.047336989 133.0
74.052260845 152.0
74.057184701 133.0
74.062108557 157.0
74.067032413 122.0
74.071956270 170.0
74.076880126 162.0
74.081803982 155.0
74.086727838 141.0
74.091651694 126.0
74.096575550 148.0
74.101499406 153.0
74.106423262 135.0
74.111347118 162.0
74.116270974 147.0
74.121194830 162.0
74.126118686 147.0
74.131042542 135.0
74.135966398 142.0
74.140890254 147.0
74.145814110 147.0
74.150737966 175.0
74.155661822 157.0
74.160585678 160.0
74.165509534 162.0
74.170433390 162.0
74.175357246 155.0
74.180281102 156.0
74.185204958 170.0
74.190128814 158.0
74.195052670 146.0
74.199976526 151.0
74.204900382 154.0
74.209824238 143.0
74.214748094 172.0
74.219671950 146.0
74.224595806 150.0
74.229519662 153.0
74.234443518 145.0
74.239367374 157.0
74.244291230 148.0
74.249215086 149.0
74.254138942 147.0
74.259062798 144.0
74.263986654 141.0
74.268910510 145.0
74.273834366 139.0
74.278758222 158.0
74.283682078 158.0
74.288605934 170.0
74.293529790 147.0
74.298453646 167.0
74.303377502 142.0
74.308301358 157.0
74.313225214 153.0
74.318149070 127.0
74.323072926 152.0
74.327996782 163.0
74.332920638 158.0
74.337844494 136.0
74.342768350 166.0
74.347692206 155.0
74.352616062 160.0
74.357539918 130.0
74.362463774 168.0
74.367387630 137.0
74.372311486 153.0
74.377235342 151.0
74.382159198 157.0
74.387083054 159.0
74.392006910 149.0
74.396930766 145.0
74.401854622 138.0
74.406778478 133.0
74.411702334 143.0
74.416626190 134.0
74.421550046 149.0
74.426473902 144.0
74.431397758 147.0
74.436321614 154.0
74.441245470 159.0
74.446169327 150.0
74.451093183 148.0
74.456017039 170.0
74.460940895 163.0
74.465864751 152.0
74.470788607 146.0
74.475712463 154.0
74.480636319 163.0
74.485560175 147.0
74.490484031 152.0
74.495407887 143.0
74.500331743 147.0
74.505255599 152.0
74.510179455 149.0
74.515103311 175.0
74.520027167 145.0
74.524951023 163.0
74.529874879 173.0
74.534798735 157.0
74.539722591 150.0
74.544646447 148.0
74.549570303 154.0
74.554494159 171.0
74.559418015 146.0
74.564341871 182.0
74.569265727 158.0
74.574189583 161.0
74.579113439 142.0
74.584037295 142.0
74.588961151 181.0
74.593885007 136.0
74.598808863 167.0
74.603732719 166.0
74.608656575 158.0
74.613580431 172.0
74.618504287 134.0
74.623428143 134.0
74.628351999 159.0
74.633275855 148.0
74.638199711 172.0
74.643123567 167.0
74.648047423 168.0
74.652971279 131.0
74.657895135 130.0
74.662818991 161.0
74.667742847 163.0
74.672666703 145.0
74.677590559 140.0
74.682514415 166.0
74.687438271 152.0
74.692362127 165.0
74.697285983 139.0
74.702209839 163.0
74.707133695 144.0
74.712057551 167.0
74.716981407 167.0
74.721905263 135.0
74.726829119 140.0
74.731752975 152.0
74.736676831 151.0
74.741600687 142.0
74.746524543 167.0
74.751448399 159.0
74.756372255 146.0
74.761296111 138.0
74.766219967 148.0
74.771143823 160.0
74.776067679 158.0
74.780991535 120.0
74.785915391 125.0
74.790839247 146.0
74.795763103 145.0
74.800686959 161.0
74.805610815 163.0
74.810534671 152.0
74.815458528 157.0
74.820382384 153.0
74.825306240 173.0
74.830230096 138.0
74.835153952 167.0
74.840077808 154.0
74.845001664 145.0
74.849925520 156.0
74.854849376 162.0
74.859773232 142.0
74.864697088 164.0
74.869620944 132.0
74.874544800 147.0
74.879468656 149.0
74.884392512 144.0
74.889316368 135.0
74.894240224 150.0
74.899164080 159.0
74.904087936 144.0
74.909011792 153.0
74.913935648 163.0
74.918859504 145.0
74.923783360 138.0
74.928707216 143.0
74.933631072 173.0
74.938554928 144.0
74.943478784 161.0
74.948402640 145.0
74.953326496 134.0
74.958250352 150.0
74.963174208 151.0
74.968098064 167.0
74.973021920 164.0
74.977945776 130.0
74.982869632 158.0
74.987793488 150.0
74.992717344 170.0
74.997641200 150.0
