35.002061930 110.0
35.006985786 131.0
35.011909642 95.0
35.016833498 123.0
35.021757354 101.0
35.026681210 122.0
35.031605066 118.0
35.036528922 123.0
35.041452778 111.0
35.046376634 120.0
35.051300490 113.0
35.056224346 108.0
35.061148202 124.0
35.066072058 135.0
35.070995914 111.0
35.075919770 125.0
35.080843626 131.0
35.085767482 111.0
35.090691338 99.0
35.095615194 110.0
35.100539050 120.0
35.105462906 99.0
35.110386762 107.0
35.115310618 122.0
35.120234474 128.0
35.125158330 102.0
35.130082186 121.0
35.135006042 129.0
35.139929898 94.0
35.144853754 96.0
35.149777610 101.0
35.154701466 125.0
35.159625322 118.0
35.164549178 110.0
35.169473034 123.0
35.174396890 121.0
35.179320746 120.0
35.184244602 109.0
35.189168458 116.0
35.194092314 127.0
35.199016170 112.0
35.203940026 144.0
35.208863882 114.0
35.213787738 111.0
35.218711594 119.0
35.223635450 113.0
35.228559306 125.0
35.233483162 103.0
35.238407018 117.0
35.243330874 115.0
35.248254730 116.0
35.253178587 113.0
35.258102443 118.0
35.263026299 126.0
35.267950155 128.0
35.272874011 111.0
35.277797867 101.0
35.282721723 118.0
35.287645579 136.0
35.292569435 112.0
35.297493291 122.0
35.302417147 120.0
35.307341003 123.0
35.312264859 139.0
35.317188715 125.0
35.322112571 114.0
35.327036427 128.0
35.331960283 105.0
35.336884139 125.0
35.341807995 108.0
35.346731851 129.0
35.351655707 110.0
35.356579563 125.0
35.361503419 117.0
35.366427275 113.0
35.371351131 112.0
35.376274987 119.0
35.381198843 108.0
35.386122699 127.0
35.391046555 113.0
35.395970411 122.0
35.400894267 127.0
35.405818123 98.0
35.410741979 107.0
35.415665835 106.0
35.420589691 106.0
35.425513547 121.0
35.430437403 121.0
35.435361259 123.0
35.440285115 131.0
35.445208971 127.0
35.450132827 110.0
35.455056683 120.0
35.459980539 125.0
35.464904395 121.0
35.469828251 123.0
35.474752107 107.0
35.479675963 125.0
35.484599819 132.0
35.489523675 133.0
35.494447531 127.0
35.499371387 88.0
35.504295243 119.0
35.509219099 125.0
35.514142955 111.0
35.519066811 105.0
35.523990667 115.0
35.528914523 126.0
35.533838379 117.0
35.538762235 114.0
35.543686091 140.0
35.548609947 109.0
35.553533803 122.0
35.558457659 142.0
35.563381515 128.0
35.568305371 125.0
35.573229227 101.0
35.578153083 124.0
35.583076939 111.0
35.588000795 107.0
35.592924651 130.0
35.597848507 115.0
35.602772363 122.0
35.607696219 129.0
35.612620075 144.0
35.617543931 120.0
35.622467787 121.0
35.627391643 133.0
35.632315499 122.0
35.637239355 109.0
35.642163211 139.0
35.647087067 130.0
35.652010923 117.0
35.656934779 109.0
35.661858635 119.0
35.666782491 115.0
35.671706347 116.0
35.676630203 117.0
35.681554059 102.0
35.686477915 112.0
35.691401771 134.0
35.696325627 105.0
35.701249483 117.0
35.706173339 108.0
35.711097195 117.0
35.716021051 106.0
35.720944907 100.0
35.725868763 113.0
35.730792619 118.0
35.735716475 128.0
35.740640331 111.0
35.745564187 116.0
35.750488043 123.0
35.755411900 115.0
35.760335756 109.0
35.765259612 117.0
35.770183468 123.0
35.775107324 99.0
35.780031180 109.0
35.784955036 108.0
35.789878892 135.0
35.794802748 123.0
35.799726604 122.0
35.804650460 114.0
35.809574316 105.0
35.814498172 121.0
35.819422028 117.0
35.824345884 119.0
35.829269740 130.0
35.834193596 103.0
35.839117452 99.0
35.844041308 116.0
35.848965164 97.0
35.853889020 114.0
35.858812876 110.0
35.863736732 127.0
35.868660588 105.0
35.873584444 114.0
35.878508300 121.0
35.883432156 119.0
35.888356012 124.0
35.893279868 147.0
35.898203724 114.0
35.903127580 120.0
35.908051436 91.0
35.912975292 102.0
35.917899148 125.0
35.922823004 119.0
35.927746860 101.0
35.932670716 115.0
35.937594572 108.0
35.942518428 121.0
35.947442284 117.0
35.952366140 118.0
35.957289996 98.0
35.962213852 108.0
35.967137708 120.0
35.972061564 120.0
35.976985420 101.0
35.981909276 117.0
35.986833132 100.0
35.991756988 104.0
35.996680844 113.0
36.001604700 113.0
36.006528556 112.0
36.011452412 129.0
36.016376268 118.0
36.021300124 126.0
36.026223980 113.0
36.031147836 110.0
36.036071692 125.0
36.040995548 133.0
36.045919404 108.0
36.050843260 128.0
36.055767116 113.0
36.060690972 127.0
36.065614828 125.0
36.070538684 115.0
36.075462540 125.0
36.080386396 109.0
36.085310252 132.0
36.090234108 100.0
36.095157964 101.0
36.100081820 108.0
36.105005676 119.0
36.109929532 122.0
36.114853388 134.0
36.119777244 116.0
36.124701100 114.0
36.129624956 127.0
36.134548812 91.0
36.139472668 122.0
36.144396524 112.0
36.149320380 117.0
36.154244236 118.0
36.159168092 123.0
36.164091948 114.0
36.169015804 118.0
36.173939660 116.0
36.178863516 108.0
36.183787372 125.0
36.188711228 126.0
36.193635084 100.0
36.198558940 131.0
36.203482796 103.0
36.208406652 109.0
36.213330508 98.0
36.218254364 127.0
36.223178220 128.0
36.228102076 106.0
36.233025932 137.0
36.237949788 108.0
36.242873644 102.0
36.247797500 125.0
36.252721357 115.0
36.257645213 131.0
36.262569069 115.0
36.267492925 104.0
36.272416781 114.0
36.277340637 110.0
36.282264493 112.0
36.287188349 112.0
36.292112205 126.0
36.297036061 115.0
36.301959917 122.0
36.306883773 113.0
36.311807629 122.0
36.316731485 103.0
36.321655341 138.0
36.326579197 111.0
36.331503053 122.0
36.336426909 117.0
36.341350765 103.0
36.346274621 112.0
36.351198477 103.0
36.356122333 112.0
36.361046189 112.0
36.365970045 109.0
36.370893901 130.0
36.375817757 128.0
36.380741613 104.0
36.385665469 104.0
36.390589325 98.0
36.395513181 116.0
36.400437037 104.0
36.405360893 108.0
36.410284749 150.0
36.415208605 102.0
36.420132461 116.0
36.425056317 129.0
36.429980173 95.0
36.434904029 113.0
36.439827885 111.0
36.444751741 122.0
36.449675597 107.0
36.454599453 118.0
36.459523309 115.0
36.464447165 94.0
36.469371021 135.0
36.474294877 102.0
36.479218733 129.0
36.484142589 103.0
36.489066445 117.0
36.493990301 120.0
36.498914157 115.0
36.503838013 110.0
36.508761869 133.0
36.513685725 133.0
36.518609581 116.0
36.523533437 112.0
36.528457293 121.0
36.533381149 122.0
36.538305005 131.0
36.543228861 122.0
36.548152717 123.0
36.553076573 111.0
36.558000429 107.0
36.562924285 120.0
36.567848141 109.0
36.572771997 119.0
36.577695853 104.0
36.582619709 108.0
36.587543565 127.0
36.592467421 105.0
36.597391277 120.0
36.602315133 124.0
36.607238989 105.0
36.612162845 110.0
36.617086701 96.0
36.622010557 129.0
36.626934413 110.0
36.631858269 128.0
36.636782125 117.0
36.641705981 114.0
36.646629837 99.0
36.651553693 113.0
36.656477549 117.0
36.661401405 117.0
36.666325261 111.0
36.671249117 123.0
36.676172973 114.0
36.681096829 116.0
36.686020685 121.0
36.690944541 99.0
36.695868397 139.0
36.700792253 105.0
36.705716109 100.0
36.710639965 121.0
36.715563821 110.0
36.720487677 103.0
36.725411533 112.0
36.730335389 131.0
36.735259245 111.0
36.740183101 111.0
36.745106957 127.0
36.750030813 122.0
36.754954670 120.0
36.759878526 133.0
36.764802382 123.0
36.769726238 125.0
36.774650094 124.0
36.779573950 117.0
36.784497806 100.0
36.789421662 90.0
36.794345518 124.0
36.799269374 119.0
36.804193230 141.0
36.809117086 129.0
36.814040942 135.0
36.818964798 103.0
36.823888654 115.0
36.828812510 112.0
36.833736366 135.0
36.838660222 124.0
36.843584078 112.0
36.848507934 109.0
36.853431790 130.0
36.858355646 136.0
36.863279502 105.0
36.868203358 121.0
36.873127214 115.0
36.878051070 121.0
36.882974926 120.0
36.887898782 134.0
36.892822638 101.0
36.897746494 118.0
36.902670350 105.0
36.907594206 130.0
36.912518062 127.0
36.917441918 126.0
36.922365774 134.0
36.927289630 101.0
36.932213486 114.0
36.937137342 108.0
36.942061198 110.0
36.946985054 136.0
36.951908910 114.0
36.956832766 149.0
36.961756622 125.0
36.966680478 128.0
36.971604334 106.0
36.976528190 138.0
36.981452046 125.0
36.986375902 97.0
36.991299758 123.0
36.996223614 105.0
37.001147470 126.0
37.006071326 138.0
37.010995182 107.0
37.015919038 130.0
37.020842894 114.0
37.025766750 114.0
37.030690606 117.0
37.035614462 114.0
37.040538318 134.0
37.045462174 131.0
37.050386030 103.0
37.055309886 109.0
37.060233742 104.0
37.065157598 132.0
37.070081454 103.0
37.075005310 101.0
37.079929166 108.0
37.084853022 109.0
37.089776878 110.0
37.094700734 120.0
37.099624590 116.0
37.104548446 127.0
37.109472302 118.0
37.114396158 128.0
37.119320014 124.0
37.124243870 116.0
37.129167726 107.0
37.134091582 104.0
37.139015438 108.0
37.143939294 106.0
37.148863150 116.0
37.153787006 120.0
37.158710862 115.0
37.163634718 118.0
37.168558574 115.0
37.173482430 116.0
37.178406286 118.0
37.183330142 125.0
37.188253998 116.0
37.193177854 109.0
37.198101710 129.0
37.203025566 137.0
37.207949422 117.0
37.212873278 135.0
37.217797134 115.0
37.222720990 118.0
37.227644846 134.0
37.232568702 121.0
37.237492558 123.0
37.242416414 133.0
37.247340270 118.0
37.252264127 114.0
37.257187983 110.0
37.262111839 133.0
37.267035695 104.0
37.271959551 102.0
37.276883407 122.0
37.281807263 131.0
37.286731119 108.0
37.291654975 129.0
37.296578831 133.0
37.301502687 98.0
37.306426543 122.0
37.311350399 140.0
37.316274255 123.0
37.321198111 117.0
37.326121967 114.0
37.331045823 118.0
37.335969679 113.0
37.340893535 121.0
37.345817391 119.0
37.350741247 116.0
37.355665103 119.0
37.360588959 129.0
37.365512815 126.0
37.370436671 124.0
37.375360527 133.0
37.380284383 110.0
37.385208239 140.0
37.390132095 162.0
37.395055951 177.0
37.399979807 172.0
37.404903663 188.0
37.409827519 224.0
37.414751375 299.0
37.419675231 282.0
37.424599087 337.0
37.429522943 298.0
37.434446799 343.0
37.439370655 347.0
37.444294511 376.0
37.449218367 295.0
37.454142223 310.0
37.459066079 321.0
37.463989935 262.0
37.468913791 258.0
37.473837647 173.0
37.478761503 167.0
37.483685359 168.0
37.488609215 158.0
37.493533071 142.0
37.498456927 156.0
37.503380783 131.0
37.508304639 135.0
37.513228495 123.0
37.518152351 144.0
37.523076207 113.0
37.528000063 111.0
37.532923919 141.0
37.537847775 134.0
37.542771631 150.0
37.547695487 112.0
37.552619343 114.0
37.557543199 122.0
37.562467055 133.0
37.567390911 133.0
37.572314767 134.0
37.577238623 119.0
37.582162479 110.0
37.587086335 123.0
37.592010191 130.0
37.596934047 113.0
37.601857903 105.0
37.606781759 135.0
37.611705615 124.0
37.616629471 133.0
37.621553327 139.0
37.626477183 135.0
37.631401039 133.0
37.636324895 112.0
37.641248751 111.0
37.646172607 127.0
37.651096463 125.0
37.656020319 132.0
37.660944175 120.0
37.665868031 115.0
37.670791887 135.0
37.675715743 139.0
37.680639599 122.0
37.685563455 110.0
37.690487311 141.0
37.695411167 130.0
37.700335023 109.0
37.705258879 120.0
37.710182735 120.0
37.715106591 141.0
37.720030447 112.0
37.724954303 119.0
37.729878159 130.0
37.734802015 106.0
37.739725871 116.0
37.744649727 111.0
37.749573583 142.0
37.754497440 119.0
37.759421296 137.0
37.764345152 128.0
37.769269008 132.0
37.774192864 110.0
37.779116720 135.0
37.784040576 120.0
37.788964432 127.0
37.793888288 115.0
37.798812144 120.0
37.803736000 120.0
37.808659856 121.0
37.813583712 124.0
37.818507568 134.0
37.823431424 133.0
37.828355280 140.0
37.833279136 111.0
37.838202992 124.0
37.843126848 126.0
37.848050704 124.0
37.852974560 139.0
37.857898416 102.0
37.862822272 120.0
37.867746128 129.0
37.872669984 130.0
37.877593840 118.0
37.882517696 113.0
37.887441552 121.0
37.892365408 131.0
37.897289264 122.0
37.902213120 133.0
37.907136976 110.0
37.912060832 101.0
37.916984688 121.0
37.921908544 123.0
37.926832400 114.0
37.931756256 122.0
37.936680112 133.0
37.941603968 133.0
37.946527824 114.0
37.951451680 117.0
37.956375536 126.0
37.961299392 124.0
37.966223248 113.0
37.971147104 108.0
37.976070960 142.0
37.980994816 112.0
37.985918672 121.0
37.990842528 128.0
37.995766384 129.0
38.000690240 124.0
38.005614096 119.0
38.010537952 123.0
38.015461808 130.0
38.020385664 112.0
38.025309520 130.0
38.030233376 124.0
38.035157232 149.0
38.040081088 144.0
38.045004944 129.0
38.049928800 129.0
38.054852656 134.0
38.059776512 136.0
38.064700368 132.0
38.069624224 109.0
38.074548080 134.0
38.079471936 131.0
38.084395792 114.0
38.089319648 115.0
38.094243504 110.0
38.099167360 134.0
38.104091216 150.0
38.109015072 121.0
38.113938928 111.0
38.118862784 103.0
38.123786640 118.0
38.128710496 136.0
38.133634352 110.0
38.138558208 160.0
38.143482064 122.0
38.148405920 125.0
38.153329776 133.0
38.158253632 135.0
38.163177488 115.0
38.168101344 141.0
38.173025200 138.0
38.177949056 130.0
38.182872912 117.0
38.187796768 132.0
38.192720624 129.0
38.197644480 140.0
38.202568336 128.0
38.207492192 139.0
38.212416048 122.0
38.217339904 103.0
38.222263760 132.0
38.227187616 129.0
38.232111472 115.0
38.237035328 123.0
38.241959184 136.0
38.246883040 128.0
38.251806897 128.0
38.256730753 123.0
38.261654609 134.0
38.266578465 133.0
38.271502321 138.0
38.276426177 125.0
38.281350033 140.0
38.286273889 120.0
38.291197745 130.0
38.296121601 118.0
38.301045457 117.0
38.305969313 133.0
38.310893169 153.0
38.315817025 139.0
38.320740881 121.0
38.325664737 123.0
38.330588593 130.0
38.335512449 133.0
38.340436305 138.0
38.345360161 143.0
38.350284017 141.0
38.355207873 132.0
38.360131729 123.0
38.365055585 147.0
38.369979441 108.0
38.374903297 124.0
38.379827153 133.0
38.384751009 144.0
38.389674865 126.0
38.394598721 118.0
38.399522577 122.0
38.404446433 135.0
38.409370289 145.0
38.414294145 139.0
38.419218001 131.0
38.424141857 146.0
38.429065713 152.0
38.433989569 157.0
38.438913425 145.0
38.443837281 134.0
38.448761137 147.0
38.453684993 150.0
38.458608849 137.0
38.463532705 153.0
38.468456561 133.0
38.473380417 140.0
38.478304273 131.0
38.483228129 151.0
38.488151985 123.0
38.493075841 147.0
38.497999697 123.0
38.502923553 131.0
38.507847409 127.0
38.512771265 135.0
38.517695121 129.0
38.522618977 157.0
38.527542833 157.0
38.532466689 132.0
38.537390545 133.0
38.542314401 173.0
38.547238257 139.0
38.552162113 158.0
38.557085969 147.0
38.562009825 163.0
38.566933681 137.0
38.571857537 123.0
38.576781393 128.0
38.581705249 154.0
38.586629105 160.0
38.591552961 162.0
38.596476817 165.0
38.601400673 158.0
38.606324529 158.0
38.611248385 147.0
38.616172241 134.0
38.621096097 124.0
38.626019953 147.0
38.630943809 165.0
38.635867665 140.0
38.640791521 152.0
38.645715377 142.0
38.650639233 147.0
38.655563089 152.0
38.660486945 164.0
38.665410801 169.0
38.670334657 145.0
38.675258513 147.0
38.680182369 159.0
38.685106225 172.0
38.690030081 153.0
38.694953937 151.0
38.699877793 142.0
38.704801649 171.0
38.709725505 172.0
38.714649361 159.0
38.719573217 150.0
38.724497073 158.0
38.729420929 174.0
38.734344785 152.0
38.739268641 155.0
38.744192497 152.0
38.749116353 162.0
38.754040210 169.0
38.758964066 160.0
38.763887922 161.0
38.768811778 174.0
38.773735634 175.0
38.778659490 164.0
38.783583346 176.0
38.788507202 164.0
38.793431058 197.0
38.798354914 162.0
38.803278770 143.0
38.808202626 133.0
38.813126482 179.0
38.818050338 168.0
38.822974194 179.0
38.827898050 184.0
38.832821906 185.0
38.837745762 154.0
38.842669618 173.0
38.847593474 157.0
38.852517330 163.0
38.857441186 172.0
38.862365042 194.0
38.867288898 190.0
38.872212754 202.0
38.877136610 180.0
38.882060466 196.0
38.886984322 190.0
38.891908178 183.0
38.896832034 218.0
38.901755890 212.0
38.906679746 190.0
38.911603602 201.0
38.916527458 224.0
38.921451314 207.0
38.926375170 222.0
38.931299026 257.0
38.936222882 266.0
38.941146738 213.0
38.946070594 211.0
38.950994450 213.0
38.955918306 215.0
38.960842162 224.0
38.965766018 226.0
38.970689874 219.0
38.975613730 232.0
38.980537586 193.0
38.985461442 233.0
38.990385298 219.0
38.995309154 208.0
39.000233010 279.0
39.005156866 229.0
39.010080722 215.0
39.015004578 239.0
39.019928434 258.0
39.024852290 211.0
39.029776146 213.0
39.034700002 225.0
39.039623858 261.0
39.044547714 278.0
39.049471570 273.0
39.054395426 286.0
39.059319282 313.0
39.064243138 324.0
39.069166994 315.0
39.074090850 349.0
39.079014706 355.0
39.083938562 358.0
39.088862418 353.0
39.093786274 354.0
39.098710130 394.0
39.103633986 363.0
39.108557842 412.0
39.113481698 412.0
39.118405554 421.0
39.123329410 436.0
39.128253266 433.0
39.133177122 407.0
39.138100978 427.0
39.143024834 485.0
39.147948690 450.0
39.152872546 462.0
39.157796402 440.0
39.162720258 444.0
39.167644114 452.0
39.172567970 489.0
39.177491826 458.0
39.182415682 473.0
39.187339538 476.0
39.192263394 498.0
39.197187250 449.0
39.202111106 485.0
39.207034962 491.0
39.211958818 494.0
39.216882674 569.0
39.221806530 500.0
39.226730386 527.0
39.231654242 546.0
39.236578098 592.0
39.241501954 630.0
39.246425810 701.0
39.251349667 651.0
39.256273523 722.0
39.261197379 804.0
39.266121235 824.0
39.271045091 856.0
39.275968947 847.0
39.280892803 937.0
39.285816659 998.0
39.290740515 1063.0
39.295664371 1180.0
39.300588227 1234.0
39.305512083 1327.0
39.310435939 1363.0
39.315359795 1412.0
39.320283651 1482.0
39.325207507 1586.0
39.330131363 1624.0
39.335055219 1745.0
39.339979075 1864.0
39.344902931 1874.0
39.349826787 1967.0
39.354750643 2019.0
39.359674499 2010.0
39.364598355 2143.0
39.369522211 2194.0
39.374446067 2180.0
39.379369923 2273.0
39.384293779 2317.0
39.389217635 2338.0
39.394141491 2370.0
39.399065347 2457.0
39.403989203 2544.0
39.408913059 2450.0
39.413836915 2447.0
39.418760771 2536.0
39.423684627 2530.0
39.428608483 2472.0
39.433532339 2501.0
39.438456195 2454.0
39.443380051 2475.0
39.448303907 2523.0
39.453227763 2438.0
39.458151619 2357.0
39.463075475 2307.0
39.467999331 2356.0
39.472923187 2330.0
39.477847043 2269.0
39.482770899 2200.0
39.487694755 2181.0
39.492618611 2134.0
39.497542467 2048.0
39.502466323 1979.0
39.507390179 1896.0
39.512314035 1861.0
39.517237891 1819.0
39.522161747 1686.0
39.527085603 1699.0
39.532009459 1639.0
39.536933315 1571.0
39.541857171 1535.0
39.546781027 1451.0
39.551704883 1412.0
39.556628739 1297.0
39.561552595 1313.0
39.566476451 1182.0
39.571400307 1219.0
39.576324163 1083.0
39.581248019 1080.0
39.586171875 973.0
39.591095731 965.0
39.596019587 921.0
39.600943443 899.0
39.605867299 873.0
39.610791155 818.0
39.615715011 768.0
39.620638867 675.0
39.625562723 741.0
39.630486579 645.0
39.635410435 616.0
39.640334291 600.0
39.645258147 566.0
39.650182003 540.0
39.655105859 524.0
39.660029715 541.0
39.664953571 503.0
39.669877427 444.0
39.674801283 452.0
39.679725139 443.0
39.684648995 395.0
39.689572851 407.0
39.694496707 386.0
39.699420563 377.0
39.704344419 362.0
39.709268275 388.0
39.714192131 360.0
39.719115987 334.0
39.724039843 297.0
39.728963699 326.0
39.733887555 295.0
39.738811411 277.0
39.743735267 281.0
39.748659123 266.0
39.753582980 278.0
39.758506836 275.0
39.763430692 273.0
39.768354548 312.0
39.773278404 215.0
39.778202260 279.0
39.783126116 220.0
39.788049972 265.0
39.792973828 208.0
39.797897684 233.0
39.802821540 221.0
39.807745396 255.0
39.812669252 205.0
39.817593108 223.0
39.822516964 227.0
39.827440820 222.0
39.832364676 193.0
39.837288532 238.0
39.842212388 206.0
39.847136244 162.0
39.852060100 170.0
39.856983956 220.0
39.861907812 162.0
39.866831668 196.0
39.871755524 178.0
39.876679380 188.0
39.881603236 180.0
39.886527092 178.0
39.891450948 169.0
39.896374804 180.0
39.901298660 168.0
39.906222516 191.0
39.911146372 168.0
39.916070228 163.0
39.920994084 168.0
39.925917940 186.0
39.930841796 168.0
39.935765652 174.0
39.940689508 152.0
39.945613364 197.0
39.950537220 145.0
39.955461076 177.0
39.960384932 178.0
39.965308788 174.0
39.970232644 163.0
39.975156500 174.0
39.980080356 166.0
39.985004212 177.0
39.989928068 181.0
39.994851924 169.0
39.999775780 175.0
40.004699636 132.0
40.009623492 179.0
40.014547348 133.0
40.019471204 170.0
40.024395060 154.0
40.029318916 138.0
40.034242772 137.0
40.039166628 162.0
40.044090484 150.0
40.049014340 157.0
40.053938196 137.0
40.058862052 131.0
40.063785908 150.0
40.068709764 120.0
40.073633620 153.0
40.078557476 165.0
40.083481332 139.0
40.088405188 168.0
40.093329044 134.0
40.098252900 139.0
40.103176756 136.0
40.108100612 118.0
40.113024468 130.0
40.117948324 160.0
40.122872180 138.0
40.127796036 140.0
40.132719892 142.0
40.137643748 131.0
40.142567604 165.0
40.147491460 164.0
40.152415316 151.0
40.157339172 153.0
40.162263028 136.0
40.167186884 141.0
40.172110740 147.0
40.177034596 164.0
40.181958452 143.0
40.186882308 141.0
40.191806164 127.0
40.196730020 142.0
40.201653876 146.0
40.206577732 133.0
40.211501588 155.0
40.216425444 155.0
40.221349300 146.0
40.226273156 129.0
40.231197012 153.0
40.236120868 140.0
40.241044724 133.0
40.245968580 145.0
40.250892437 146.0
40.255816293 140.0
40.260740149 131.0
40.265664005 144.0
40.270587861 173.0
40.275511717 155.0
40.280435573 141.0
40.285359429 132.0
40.290283285 137.0
40.295207141 147.0
40.300130997 137.0
40.305054853 131.0
40.309978709 133.0
40.314902565 138.0
40.319826421 128.0
40.324750277 128.0
40.329674133 144.0
40.334597989 156.0
40.339521845 164.0
40.344445701 138.0
40.349369557 125.0
40.354293413 135.0
40.359217269 142.0
40.364141125 131.0
40.369064981 147.0
40.373988837 158.0
40.378912693 125.0
40.383836549 140.0
40.388760405 140.0
40.393684261 133.0
40.398608117 160.0
40.403531973 132.0
40.408455829 166.0
40.413379685 141.0
40.418303541 128.0
40.423227397 143.0
40.428151253 147.0
40.433075109 138.0
40.437998965 130.0
40.442922821 164.0
40.447846677 148.0
40.452770533 153.0
40.457694389 141.0
40.462618245 156.0
40.467542101 134.0
40.472465957 153.0
40.477389813 130.0
40.482313669 160.0
40.487237525 161.0
40.492161381 149.0
40.497085237 142.0
40.502009093 161.0
40.506932949 152.0
40.511856805 139.0
40.516780661 138.0
40.521704517 168.0
40.526628373 137.0
40.531552229 130.0
40.536476085 138.0
40.541399941 129.0
40.546323797 149.0
40.551247653 164.0
40.556171509 145.0
40.561095365 152.0
40.566019221 148.0
40.570943077 159.0
40.575866933 143.0
40.580790789 150.0
40.585714645 149.0
40.590638501 158.0
40.595562357 143.0
40.600486213 163.0
40.605410069 171.0
40.610333925 178.0
40.615257781 156.0
40.620181637 149.0
40.625105493 170.0
40.630029349 156.0
40.634953205 141.0
40.639877061 151.0
40.644800917 169.0
40.649724773 152.0
40.654648629 167.0
40.659572485 168.0
40.664496341 167.0
40.669420197 154.0
40.674344053 167.0
40.679267909 166.0
40.684191765 166.0
40.689115621 168.0
40.694039477 171.0
40.698963333 146.0
40.703887189 156.0
40.708811045 183.0
40.713734901 158.0
40.718658757 160.0
40.723582613 153.0
40.728506469 185.0
40.733430325 191.0
40.738354181 166.0
40.743278037 183.0
40.748201893 178.0
40.753125750 164.0
40.758049606 178.0
40.762973462 174.0
40.767897318 164.0
40.772821174 151.0
40.777745030 154.0
40.782668886 166.0
40.787592742 167.0
40.792516598 165.0
40.797440454 181.0
40.802364310 166.0
40.807288166 176.0
40.812212022 191.0
40.817135878 181.0
40.822059734 197.0
40.826983590 169.0
40.831907446 176.0
40.836831302 176.0
40.841755158 194.0
40.846679014 177.0
40.851602870 169.0
40.856526726 198.0
40.861450582 181.0
40.866374438 180.0
40.871298294 169.0
40.876222150 161.0
40.881146006 209.0
40.886069862 157.0
40.890993718 178.0
40.895917574 176.0
40.900841430 190.0
40.905765286 198.0
40.910689142 184.0
40.915612998 173.0
40.920536854 176.0
40.925460710 174.0
40.930384566 178.0
40.935308422 184.0
40.940232278 177.0
40.945156134 187.0
40.950079990 206.0
40.955003846 174.0
40.959927702 176.0
40.964851558 183.0
40.969775414 193.0
40.974699270 199.0
40.979623126 174.0
40.984546982 192.0
40.989470838 182.0
40.994394694 179.0
40.999318550 208.0
41.004242406 204.0
41.009166262 180.0
41.014090118 199.0
41.019013974 193.0
41.023937830 188.0
41.028861686 218.0
41.033785542 202.0
41.038709398 203.0
41.043633254 219.0
41.048557110 194.0
41.053480966 192.0
41.058404822 205.0
41.063328678 204.0
41.068252534 189.0
41.073176390 183.0
41.078100246 224.0
41.083024102 230.0
41.087947958 184.0
41.092871814 227.0
41.097795670 210.0
41.102719526 169.0
41.107643382 218.0
41.112567238 219.0
41.117491094 184.0
41.122414950 202.0
41.127338806 185.0
41.132262662 197.0
41.137186518 201.0
41.142110374 217.0
41.147034230 223.0
41.151958086 217.0
41.156881942 224.0
41.161805798 265.0
41.166729654 223.0
41.171653510 287.0
41.176577366 208.0
41.181501222 209.0
41.186425078 216.0
41.191348934 270.0
41.196272790 271.0
41.201196646 229.0
41.206120502 287.0
41.211044358 278.0
41.215968214 257.0
41.220892070 268.0
41.225815926 214.0
41.230739782 271.0
41.235663638 297.0
41.240587494 300.0
41.245511350 283.0
41.250435207 308.0
41.255359063 292.0
41.260282919 295.0
41.265206775 318.0
41.270130631 308.0
41.275054487 321.0
41.279978343 295.0
41.284902199 318.0
41.289826055 306.0
41.294749911 325.0
41.299673767 304.0
41.304597623 331.0
41.309521479 352.0
41.314445335 375.0
41.319369191 374.0
41.324293047 324.0
41.329216903 336.0
41.334140759 409.0
41.339064615 455.0
41.343988471 456.0
41.348912327 418.0
41.353836183 445.0
41.358760039 413.0
41.363683895 466.0
41.368607751 501.0
41.373531607 563.0
41.378455463 593.0
41.383379319 608.0
41.388303175 609.0
41.393227031 722.0
41.398150887 678.0
41.403074743 817.0
41.407998599 815.0
41.412922455 803.0
41.417846311 969.0
41.422770167 914.0
41.427694023 928.0
41.432617879 943.0
41.437541735 970.0
41.442465591 950.0
41.447389447 977.0
41.452313303 941.0
41.457237159 987.0
41.462161015 972.0
41.467084871 901.0
41.472008727 986.0
41.476932583 953.0
41.481856439 1045.0
41.486780295 926.0
41.491704151 1095.0
41.496628007 1125.0
41.501551863 1109.0
41.506475719 1164.0
41.511399575 1385.0
41.516323431 1531.0
41.521247287 1564.0
41.526171143 1779.0
41.531094999 1870.0
41.536018855 2371.0
41.540942711 2427.0
41.545866567 3146.0
41.550790423 3356.0
41.555714279 4597.0
41.560638135 5414.0
41.565561991 7866.0
41.570485847 10302.0
41.575409703 17877.0
41.580333559 25273.0
41.585257415 39445.0
41.590181271 47452.0
41.595105127 55390.0
41.600028983 60136.0
41.604952839 63088.0
41.609876695 64913.0
41.614800551 64865.0
41.619724407 65504.0
41.624648263 63038.0
41.629572119 60609.0
41.634495975 50350.0
41.639419831 41588.0
41.644343687 27341.0
41.649267543 19652.0
41.654191399 13077.0
41.659115255 9903.0
41.664039111 7900.0
41.668962967 7000.0
41.673886823 7465.0
41.678810679 8358.0
41.683734535 10838.0
41.688658391 15268.0
41.693582247 19835.0
41.698506103 24512.0
41.703429959 27853.0
41.708353815 30244.0
41.713277671 31716.0
41.718201527 32499.0
41.723125383 32417.0
41.728049239 32115.0
41.732973095 31026.0
41.737896951 28860.0
41.742820807 24958.0
41.747744663 19633.0
41.752668520 14393.0
41.757592376 9900.0
41.762516232 6855.0
41.767440088 4805.0
41.772363944 3728.0
41.777287800 2927.0
41.782211656 2330.0
41.787135512 1965.0
41.792059368 1703.0
41.796983224 1524.0
41.801907080 1357.0
41.806830936 1230.0
41.811754792 1123.0
41.816678648 1061.0
41.821602504 937.0
41.826526360 966.0
41.831450216 855.0
41.836374072 820.0
41.841297928 787.0
41.846221784 754.0
41.851145640 699.0
41.856069496 751.0
41.860993352 649.0
41.865917208 620.0
41.870841064 615.0
41.875764920 573.0
41.880688776 546.0
41.885612632 573.0
41.890536488 586.0
41.895460344 522.0
41.900384200 499.0
41.905308056 506.0
41.910231912 459.0
41.915155768 462.0
41.920079624 449.0
41.925003480 439.0
41.929927336 416.0
41.934851192 432.0
41.939775048 419.0
41.944698904 371.0
41.949622760 385.0
41.954546616 385.0
41.959470472 392.0
41.964394328 387.0
41.969318184 363.0
41.974242040 378.0
41.979165896 380.0
41.984089752 350.0
41.989013608 353.0
41.993937464 311.0
41.998861320 337.0
42.003785176 338.0
42.008709032 302.0
42.013632888 324.0
42.018556744 342.0
42.023480600 296.0
42.028404456 324.0
42.033328312 290.0
42.038252168 298.0
42.043176024 281.0
42.048099880 278.0
42.053023736 301.0
42.057947592 279.0
42.062871448 290.0
42.067795304 217.0
42.072719160 316.0
42.077643016 258.0
42.082566872 273.0
42.087490728 274.0
42.092414584 275.0
42.097338440 268.0
42.102262296 260.0
42.107186152 206.0
42.112110008 261.0
42.117033864 255.0
42.121957720 229.0
42.126881576 228.0
42.131805432 262.0
42.136729288 190.0
42.141653144 199.0
42.146577000 212.0
42.151500856 216.0
42.156424712 178.0
42.161348568 211.0
42.166272424 228.0
42.171196280 212.0
42.176120136 223.0
42.181043992 184.0
42.185967848 202.0
42.190891704 183.0
42.195815560 214.0
42.200739416 214.0
42.205663272 191.0
42.210587128 217.0
42.215510984 155.0
42.220434840 191.0
42.225358696 184.0
42.230282552 175.0
42.235206408 183.0
42.240130264 158.0
42.245054120 198.0
42.249977977 167.0
42.254901833 183.0
42.259825689 187.0
42.264749545 186.0
42.269673401 149.0
42.274597257 188.0
42.279521113 195.0
42.284444969 152.0
42.289368825 182.0
42.294292681 180.0
42.299216537 172.0
42.304140393 160.0
42.309064249 176.0
42.313988105 164.0
42.318911961 179.0
42.323835817 177.0
42.328759673 147.0
42.333683529 164.0
42.338607385 167.0
42.343531241 162.0
42.348455097 156.0
42.353378953 152.0
42.358302809 146.0
42.363226665 151.0
42.368150521 147.0
42.373074377 153.0
42.377998233 179.0
42.382922089 158.0
42.387845945 151.0
42.392769801 170.0
42.397693657 152.0
42.402617513 152.0
42.407541369 137.0
42.412465225 133.0
42.417389081 131.0
42.422312937 141.0
42.427236793 133.0
42.432160649 146.0
42.437084505 135.0
42.442008361 161.0
42.446932217 141.0
42.451856073 152.0
42.456779929 147.0
42.461703785 154.0
42.466627641 137.0
42.471551497 159.0
42.476475353 152.0
42.481399209 137.0
42.486323065 145.0
42.491246921 158.0
42.496170777 156.0
42.501094633 151.0
42.506018489 154.0
42.510942345 148.0
42.515866201 140.0
42.520790057 151.0
42.525713913 124.0
42.530637769 147.0
42.535561625 168.0
42.540485481 135.0
42.545409337 151.0
42.550333193 144.0
42.555257049 171.0
42.560180905 157.0
42.565104761 154.0
42.570028617 147.0
42.574952473 156.0
42.579876329 159.0
42.584800185 158.0
42.589724041 159.0
42.594647897 149.0
42.599571753 135.0
42.604495609 135.0
42.609419465 158.0
42.614343321 146.0
42.619267177 160.0
42.624191033 142.0
42.629114889 161.0
42.634038745 142.0
42.638962601 117.0
42.643886457 142.0
42.648810313 138.0
42.653734169 140.0
42.658658025 150.0
42.663581881 131.0
42.668505737 134.0
42.673429593 151.0
42.678353449 154.0
42.683277305 137.0
42.688201161 126.0
42.693125017 160.0
42.698048873 144.0
42.702972729 120.0
42.707896585 159.0
42.712820441 145.0
42.717744297 143.0
42.722668153 124.0
42.727592009 125.0
42.732515865 156.0
42.737439721 126.0
42.742363577 146.0
42.747287433 149.0
42.752211290 129.0
42.757135146 138.0
42.762059002 150.0
42.766982858 157.0
42.771906714 155.0
42.776830570 116.0
42.781754426 141.0
42.786678282 140.0
42.791602138 130.0
42.796525994 147.0
42.801449850 141.0
42.806373706 139.0
42.811297562 139.0
42.816221418 148.0
42.821145274 104.0
42.826069130 133.0
42.830992986 138.0
42.835916842 140.0
42.840840698 136.0
42.845764554 127.0
42.850688410 124.0
42.855612266 149.0
42.860536122 129.0
42.865459978 132.0
42.870383834 144.0
42.875307690 137.0
42.880231546 127.0
42.885155402 116.0
42.890079258 150.0
42.895003114 113.0
42.899926970 143.0
42.904850826 127.0
42.909774682 140.0
42.914698538 139.0
42.919622394 145.0
42.924546250 137.0
42.929470106 134.0
42.934393962 118.0
42.939317818 124.0
42.944241674 130.0
42.949165530 126.0
42.954089386 126.0
42.959013242 111.0
42.963937098 126.0
42.968860954 128.0
42.973784810 140.0
42.978708666 131.0
42.983632522 122.0
42.988556378 106.0
42.993480234 121.0
42.998404090 126.0
43.003327946 130.0
43.008251802 139.0
43.013175658 132.0
43.018099514 135.0
43.023023370 138.0
43.027947226 153.0
43.032871082 120.0
43.037794938 136.0
43.042718794 133.0
43.047642650 138.0
43.052566506 124.0
43.057490362 134.0
43.062414218 128.0
43.067338074 138.0
43.072261930 124.0
43.077185786 116.0
43.082109642 143.0
43.087033498 136.0
43.091957354 142.0
43.096881210 137.0
43.101805066 126.0
43.106728922 126.0
43.111652778 119.0
43.116576634 165.0
43.121500490 111.0
43.126424346 138.0
43.131348202 115.0
43.136272058 148.0
43.141195914 149.0
43.146119770 115.0
43.151043626 134.0
43.155967482 140.0
43.160891338 136.0
43.165815194 109.0
43.170739050 129.0
43.175662906 133.0
43.180586762 130.0
43.185510618 115.0
43.190434474 147.0
43.195358330 120.0
43.200282186 140.0
43.205206042 148.0
43.210129898 134.0
43.215053754 144.0
43.219977610 126.0
43.224901466 136.0
43.229825322 138.0
43.234749178 150.0
43.239673034 138.0
43.244596890 129.0
43.249520747 125.0
43.254444603 134.0
43.259368459 118.0
43.264292315 151.0
43.269216171 126.0
43.274140027 124.0
43.279063883 121.0
43.283987739 132.0
43.288911595 118.0
43.293835451 138.0
43.298759307 142.0
43.303683163 108.0
43.308607019 126.0
43.313530875 121.0
43.318454731 142.0
43.323378587 116.0
43.328302443 127.0
43.333226299 138.0
43.338150155 137.0
43.343074011 118.0
43.347997867 123.0
43.352921723 133.0
43.357845579 113.0
43.362769435 144.0
43.367693291 106.0
43.372617147 129.0
43.377541003 137.0
43.382464859 133.0
43.387388715 135.0
43.392312571 130.0
43.397236427 142.0
43.402160283 127.0
43.407084139 136.0
43.412007995 111.0
43.416931851 118.0
43.421855707 145.0
43.426779563 113.0
43.431703419 116.0
43.436627275 125.0
43.441551131 140.0
43.446474987 118.0
43.451398843 119.0
43.456322699 127.0
43.461246555 146.0
43.466170411 148.0
43.471094267 125.0
43.476018123 124.0
43.480941979 126.0
43.485865835 136.0
43.490789691 147.0
43.495713547 131.0
43.500637403 128.0
43.505561259 124.0
43.510485115 136.0
43.515408971 139.0
43.520332827 138.0
43.525256683 120.0
43.530180539 156.0
43.535104395 149.0
43.540028251 150.0
43.544952107 136.0
43.549875963 149.0
43.554799819 119.0
43.559723675 121.0
43.564647531 149.0
43.569571387 132.0
43.574495243 160.0
43.579419099 139.0
43.584342955 137.0
43.589266811 128.0
43.594190667 142.0
43.599114523 126.0
43.604038379 156.0
43.608962235 149.0
43.613886091 141.0
43.618809947 136.0
43.623733803 143.0
43.628657659 142.0
43.633581515 143.0
43.638505371 150.0
43.643429227 132.0
43.648353083 139.0
43.653276939 147.0
43.658200795 138.0
43.663124651 130.0
43.668048507 151.0
43.672972363 125.0
43.677896219 142.0
43.682820075 129.0
43.687743931 136.0
43.692667787 159.0
43.697591643 157.0
43.702515499 154.0
43.707439355 171.0
43.712363211 113.0
43.717287067 140.0
43.722210923 138.0
43.727134779 131.0
43.732058635 126.0
43.736982491 150.0
43.741906347 154.0
43.746830203 131.0
43.751754060 121.0
43.756677916 142.0
43.761601772 129.0
43.766525628 119.0
43.771449484 151.0
43.776373340 160.0
43.781297196 139.0
43.786221052 140.0
43.791144908 146.0
43.796068764 156.0
43.800992620 127.0
43.805916476 149.0
43.810840332 115.0
43.815764188 154.0
43.820688044 144.0
43.825611900 148.0
43.830535756 168.0
43.835459612 151.0
43.840383468 162.0
43.845307324 132.0
43.850231180 142.0
43.855155036 154.0
43.860078892 153.0
43.865002748 160.0
43.869926604 145.0
43.874850460 164.0
43.879774316 161.0
43.884698172 126.0
43.889622028 153.0
43.894545884 142.0
43.899469740 139.0
43.904393596 153.0
43.909317452 146.0
43.914241308 123.0
43.919165164 170.0
43.924089020 141.0
43.929012876 162.0
43.933936732 131.0
43.938860588 150.0
43.943784444 143.0
43.948708300 154.0
43.953632156 149.0
43.958556012 143.0
43.963479868 134.0
43.968403724 169.0
43.973327580 155.0
43.978251436 136.0
43.983175292 162.0
43.988099148 176.0
43.993023004 166.0
43.997946860 154.0
44.002870716 154.0
44.007794572 134.0
44.012718428 153.0
44.017642284 144.0
44.022566140 165.0
44.027489996 158.0
44.032413852 138.0
44.037337708 159.0
44.042261564 156.0
44.047185420 140.0
44.052109276 155.0
44.057033132 146.0
44.061956988 156.0
44.066880844 157.0
44.071804700 178.0
44.076728556 162.0
44.081652412 157.0
44.086576268 161.0
44.091500124 183.0
44.096423980 163.0
44.101347836 142.0
44.106271692 139.0
44.111195548 160.0
44.116119404 177.0
44.121043260 162.0
44.125967116 160.0
44.130890972 167.0
44.135814828 158.0
44.140738684 192.0
44.145662540 150.0
44.150586396 161.0
44.155510252 185.0
44.160434108 166.0
44.165357964 163.0
44.170281820 173.0
44.175205676 169.0
44.180129532 168.0
44.185053388 170.0
44.189977244 165.0
44.194901100 195.0
44.199824956 181.0
44.204748812 210.0
44.209672668 179.0
44.214596524 185.0
44.219520380 215.0
44.224444236 177.0
44.229368092 170.0
44.234291948 215.0
44.239215804 202.0
44.244139660 189.0
44.249063517 195.0
44.253987373 241.0
44.258911229 226.0
44.263835085 217.0
44.268758941 237.0
44.273682797 197.0
44.278606653 234.0
44.283530509 244.0
44.288454365 236.0
44.293378221 222.0
44.298302077 239.0
44.303225933 271.0
44.308149789 275.0
44.313073645 244.0
44.317997501 244.0
44.322921357 257.0
44.327845213 222.0
44.332769069 276.0
44.337692925 232.0
44.342616781 307.0
44.347540637 272.0
44.352464493 289.0
44.357388349 259.0
44.362312205 280.0
44.367236061 283.0
44.372159917 277.0
44.377083773 280.0
44.382007629 270.0
44.386931485 305.0
44.391855341 293.0
44.396779197 288.0
44.401703053 330.0
44.406626909 260.0
44.411550765 287.0
44.416474621 282.0
44.421398477 308.0
44.426322333 324.0
44.431246189 299.0
44.436170045 321.0
44.441093901 282.0
44.446017757 277.0
44.450941613 294.0
44.455865469 270.0
44.460789325 290.0
44.465713181 285.0
44.470637037 268.0
44.475560893 274.0
44.480484749 294.0
44.485408605 296.0
44.490332461 263.0
44.495256317 232.0
44.500180173 259.0
44.505104029 263.0
44.510027885 246.0
44.514951741 267.0
44.519875597 269.0
44.524799453 246.0
44.529723309 277.0
44.534647165 247.0
44.539571021 255.0
44.544494877 262.0
44.549418733 238.0
44.554342589 243.0
44.559266445 211.0
44.564190301 219.0
44.569114157 207.0
44.574038013 217.0
44.578961869 183.0
44.583885725 202.0
44.588809581 201.0
44.593733437 205.0
44.598657293 193.0
44.603581149 199.0
44.608505005 174.0
44.613428861 207.0
44.618352717 197.0
44.623276573 202.0
44.628200429 186.0
44.633124285 185.0
44.638048141 195.0
44.642971997 179.0
44.647895853 161.0
44.652819709 162.0
44.657743565 182.0
44.662667421 177.0
44.667591277 196.0
44.672515133 170.0
44.677438989 156.0
44.682362845 158.0
44.687286701 161.0
44.692210557 157.0
44.697134413 168.0
44.702058269 159.0
44.706982125 154.0
44.711905981 178.0
44.716829837 155.0
44.721753693 165.0
44.726677549 156.0
44.731601405 152.0
44.736525261 156.0
44.741449117 156.0
44.746372973 159.0
44.751296830 159.0
44.756220686 152.0
44.761144542 148.0
44.766068398 184.0
44.770992254 148.0
44.775916110 126.0
44.780839966 144.0
44.785763822 157.0
44.790687678 145.0
44.795611534 129.0
44.800535390 158.0
44.805459246 134.0
44.810383102 139.0
44.815306958 136.0
44.820230814 129.0
44.825154670 161.0
44.830078526 153.0
44.835002382 139.0
44.839926238 122.0
44.844850094 145.0
44.849773950 140.0
44.854697806 137.0
44.859621662 145.0
44.864545518 143.0
44.869469374 131.0
44.874393230 135.0
44.879317086 104.0
44.884240942 132.0
44.889164798 122.0
44.894088654 130.0
44.899012510 120.0
44.903936366 147.0
44.908860222 142.0
44.913784078 148.0
44.918707934 131.0
44.923631790 126.0
44.928555646 147.0
44.933479502 136.0
44.938403358 147.0
44.943327214 133.0
44.948251070 132.0
44.953174926 117.0
44.958098782 124.0
44.963022638 128.0
44.967946494 161.0
44.972870350 122.0
44.977794206 96.0
44.982718062 141.0
44.987641918 135.0
44.992565774 134.0
44.997489630 118.0
