55.001861930 61.0
55.006785786 56.0
55.011709642 64.0
55.016633498 55.0
55.021557354 49.0
55.026481210 42.0
55.031405066 57.0
55.036328922 57.0
55.041252778 63.0
55.046176634 63.0
55.051100490 52.0
55.056024346 41.0
55.060948202 36.0
55.065872058 61.0
55.070795914 48.0
55.075719770 55.0
55.080643626 59.0
55.085567482 54.0
55.090491338 70.0
55.095415194 72.0
55.100339050 65.0
55.105262906 50.0
55.110186762 56.0
55.115110618 60.0
55.120034474 68.0
55.124958330 54.0
55.129882186 57.0
55.134806042 54.0
55.139729898 67.0
55.144653754 55.0
55.149577610 66.0
55.154501466 58.0
55.159425322 62.0
55.164349178 50.0
55.169273034 66.0
55.174196890 67.0
55.179120746 68.0
55.184044602 54.0
55.188968458 73.0
55.193892314 55.0
55.198816170 66.0
55.203740026 63.0
55.208663882 51.0
55.213587739 53.0
55.218511595 56.0
55.223435451 64.0
55.228359307 66.0
55.233283163 53.0
55.238207019 52.0
55.243130875 59.0
55.248054731 62.0
55.252978587 62.0
55.257902443 51.0
55.262826299 70.0
55.267750155 67.0
55.272674011 57.0
55.277597867 56.0
55.282521723 69.0
55.287445579 62.0
55.292369435 69.0
55.297293291 60.0
55.302217147 53.0
55.307141003 70.0
55.312064859 83.0
55.316988715 69.0
55.321912571 46.0
55.326836427 61.0
55.331760283 63.0
55.336684139 58.0
55.341607995 56.0
55.346531851 59.0
55.351455707 58.0
55.356379563 54.0
55.361303419 61.0
55.366227275 63.0
55.371151131 69.0
55.376074987 47.0
55.380998843 51.0
55.385922699 63.0
55.390846555 51.0
55.395770411 47.0
55.400694267 53.0
55.405618123 56.0
55.410541979 45.0
55.415465835 48.0
55.420389691 60.0
55.425313547 68.0
55.430237403 53.0
55.435161259 63.0
55.440085115 55.0
55.445008971 65.0
55.449932827 57.0
55.454856683 51.0
55.459780539 53.0
55.464704395 63.0
55.469628251 58.0
55.474552107 54.0
55.479475963 59.0
55.484399819 48.0
55.489323675 59.0
55.494247531 54.0
55.499171387 65.0
55.504095243 58.0
55.509019099 56.0
55.513942955 53.0
55.518866811 58.0
55.523790667 69.0
55.528714523 65.0
55.533638379 51.0
55.538562235 72.0
55.543486091 73.0
55.548409947 40.0
55.553333803 67.0
55.558257659 50.0
55.563181515 65.0
55.568105371 71.0
55.573029227 50.0
55.577953083 60.0
55.582876939 55.0
55.587800795 56.0
55.592724651 59.0
55.597648507 54.0
55.602572363 70.0
55.607496219 69.0
55.612420075 69.0
55.617343931 64.0
55.622267787 59.0
55.627191644 62.0
55.632115500 55.0
55.637039356 74.0
55.641963212 61.0
55.646887068 48.0
55.651810924 57.0
55.656734780 48.0
55.661658636 59.0
55.666582492 51.0
55.671506348 46.0
55.676430204 65.0
55.681354060 78.0
55.686277916 66.0
55.691201772 61.0
55.696125628 63.0
55.701049484 66.0
55.705973340 52.0
55.710897196 48.0
55.715821052 56.0
55.720744908 68.0
55.725668764 56.0
55.730592620 57.0
55.735516476 63.0
55.740440332 53.0
55.745364188 72.0
55.750288044 67.0
55.755211900 64.0
55.760135756 33.0
55.765059612 50.0
55.769983468 57.0
55.774907324 73.0
55.779831180 62.0
55.784755036 68.0
55.789678892 56.0
55.794602748 42.0
55.799526604 53.0
55.804450460 55.0
55.809374316 47.0
55.814298172 51.0
55.819222028 64.0
55.824145884 49.0
55.829069740 60.0
55.833993596 48.0
55.838917452 59.0
55.843841308 44.0
55.848765164 49.0
55.853689020 50.0
55.858612876 48.0
55.863536732 47.0
55.868460588 64.0
55.873384444 48.0
55.878308300 50.0
55.883232156 61.0
55.888156012 50.0
55.893079868 58.0
55.898003724 58.0
55.902927580 38.0
55.907851436 65.0
55.912775292 57.0
55.917699148 44.0
55.922623004 59.0
55.927546860 69.0
55.932470716 68.0
55.937394572 58.0
55.942318428 62.0
55.947242284 61.0
55.952166140 69.0
55.957089996 55.0
55.962013852 50.0
55.966937708 66.0
55.971861564 52.0
55.976785420 54.0
55.981709276 57.0
55.986633132 51.0
55.991556988 71.0
55.996480844 56.0
56.001404700 36.0
56.006328556 52.0
56.011252412 54.0
56.016176268 62.0
56.021100124 61.0
56.026023980 62.0
56.030947836 60.0
56.035871692 60.0
56.040795548 48.0
56.045719405 61.0
56.050643261 46.0
56.055567117 59.0
56.060490973 55.0
56.065414829 57.0
56.070338685 64.0
56.075262541 65.0
56.080186397 36.0
56.085110253 61.0
56.090034109 57.0
56.094957965 56.0
56.099881821 58.0
56.104805677 64.0
56.109729533 58.0
56.114653389 51.0
56.119577245 49.0
56.124501101 79.0
56.129424957 47.0
56.134348813 56.0
56.139272669 61.0
56.144196525 58.0
56.149120381 55.0
56.154044237 57.0
56.158968093 43.0
56.163891949 69.0
56.168815805 56.0
56.173739661 49.0
56.178663517 52.0
56.183587373 48.0
56.188511229 66.0
56.193435085 54.0
56.198358941 61.0
56.203282797 53.0
56.208206653 67.0
56.213130509 57.0
56.218054365 49.0
56.222978221 65.0
56.227902077 34.0
56.232825933 56.0
56.237749789 49.0
56.242673645 57.0
56.247597501 55.0
56.252521357 47.0
56.257445213 53.0
56.262369069 46.0
56.267292925 47.0
56.272216781 58.0
56.277140637 57.0
56.282064493 44.0
56.286988349 57.0
56.291912205 62.0
56.296836061 50.0
56.301759917 60.0
56.306683773 48.0
56.311607629 76.0
56.316531485 64.0
56.321455341 61.0
56.326379197 63.0
56.331303053 63.0
56.336226909 57.0
56.341150765 51.0
56.346074621 54.0
56.350998477 66.0
56.355922333 59.0
56.360846189 47.0
56.365770045 58.0
56.370693901 51.0
56.375617757 51.0
56.380541613 64.0
56.385465469 47.0
56.390389325 58.0
56.395313181 58.0
56.400237037 64.0
56.405160893 56.0
56.410084749 58.0
56.415008605 47.0
56.419932461 50.0
56.424856317 55.0
56.429780173 55.0
56.434704029 65.0
56.439627885 54.0
56.444551741 61.0
56.449475597 49.0
56.454399453 78.0
56.459323309 61.0
56.464247166 64.0
56.469171022 55.0
56.474094878 55.0
56.479018734 50.0
56.483942590 62.0
56.488866446 65.0
56.493790302 54.0
56.498714158 54.0
56.503638014 66.0
56.508561870 62.0
56.513485726 75.0
56.518409582 62.0
56.523333438 57.0
56.528257294 56.0
56.533181150 47.0
56.538105006 50.0
56.543028862 60.0
56.547952718 70.0
56.552876574 67.0
56.557800430 54.0
56.562724286 60.0
56.567648142 55.0
56.572571998 41.0
56.577495854 53.0
56.582419710 64.0
56.587343566 60.0
56.592267422 70.0
56.597191278 49.0
56.602115134 55.0
56.607038990 57.0
56.611962846 54.0
56.616886702 60.0
56.621810558 71.0
56.626734414 69.0
56.631658270 58.0
56.636582126 52.0
56.641505982 53.0
56.646429838 63.0
56.651353694 54.0
56.656277550 45.0
56.661201406 39.0
56.666125262 50.0
56.671049118 43.0
56.675972974 62.0
56.680896830 56.0
56.685820686 58.0
56.690744542 58.0
56.695668398 66.0
56.700592254 42.0
56.705516110 54.0
56.710439966 52.0
56.715363822 48.0
56.720287678 61.0
56.725211534 65.0
56.730135390 52.0
56.735059246 63.0
56.739983102 60.0
56.744906958 58.0
56.749830814 58.0
56.754754670 50.0
56.759678526 48.0
56.764602382 56.0
56.769526238 52.0
56.774450094 59.0
56.779373950 56.0
56.784297806 51.0
56.789221662 72.0
56.794145518 67.0
56.799069374 52.0
56.803993230 50.0
56.808917086 48.0
56.813840942 69.0
56.818764798 54.0
56.823688654 55.0
56.828612510 47.0
56.833536366 48.0
56.838460222 55.0
56.843384078 64.0
56.848307934 56.0
56.853231790 48.0
56.858155646 54.0
56.863079502 68.0
56.868003358 66.0
56.872927214 62.0
56.877851071 52.0
56.882774927 63.0
56.887698783 65.0
56.892622639 59.0
56.897546495 61.0
56.902470351 53.0
56.907394207 47.0
56.912318063 51.0
56.917241919 80.0
56.922165775 50.0
56.927089631 60.0
56.932013487 70.0
56.936937343 65.0
56.941861199 63.0
56.946785055 62.0
56.951708911 58.0
56.956632767 48.0
56.961556623 52.0
56.966480479 53.0
56.971404335 60.0
56.976328191 47.0
56.981252047 48.0
56.986175903 56.0
56.991099759 58.0
56.996023615 59.0
57.000947471 60.0
57.005871327 50.0
57.010795183 73.0
57.015719039 52.0
57.020642895 59.0
57.025566751 60.0
57.030490607 61.0
57.035414463 63.0
57.040338319 50.0
57.045262175 61.0
57.050186031 59.0
57.055109887 48.0
57.060033743 59.0
57.064957599 65.0
57.069881455 61.0
57.074805311 57.0
57.079729167 59.0
57.084653023 83.0
57.089576879 55.0
57.094500735 37.0
57.099424591 55.0
57.104348447 64.0
57.109272303 51.0
57.114196159 48.0
57.119120015 63.0
57.124043871 63.0
57.128967727 57.0
57.133891583 58.0
57.138815439 53.0
57.143739295 60.0
57.148663151 58.0
57.153587007 58.0
57.158510863 55.0
57.163434719 72.0
57.168358575 57.0
57.173282431 60.0
57.178206287 52.0
57.183130143 65.0
57.188053999 56.0
57.192977855 55.0
57.197901711 70.0
57.202825567 52.0
57.207749423 62.0
57.212673279 71.0
57.217597135 61.0
57.222520991 42.0
57.227444847 52.0
57.232368703 55.0
57.237292559 51.0
57.242216415 56.0
57.247140271 42.0
57.252064127 60.0
57.256987983 48.0
57.261911839 50.0
57.266835695 56.0
57.271759551 46.0
57.276683407 65.0
57.281607263 52.0
57.286531119 45.0
57.291454975 54.0
57.296378832 55.0
57.301302688 60.0
57.306226544 43.0
57.311150400 53.0
57.316074256 56.0
57.320998112 53.0
57.325921968 59.0
57.330845824 70.0
57.335769680 64.0
57.340693536 48.0
57.345617392 54.0
57.350541248 65.0
57.355465104 62.0
57.360388960 44.0
57.365312816 62.0
57.370236672 67.0
57.375160528 51.0
57.380084384 59.0
57.385008240 57.0
57.389932096 65.0
57.394855952 61.0
57.399779808 56.0
57.404703664 62.0
57.409627520 64.0
57.414551376 67.0
57.419475232 74.0
57.424399088 53.0
57.429322944 71.0
57.434246800 70.0
57.439170656 54.0
57.444094512 67.0
57.449018368 65.0
57.453942224 40.0
57.458866080 52.0
57.463789936 59.0
57.468713792 67.0
57.473637648 58.0
57.478561504 67.0
57.483485360 62.0
57.488409216 59.0
57.493333072 61.0
57.498256928 40.0
57.503180784 64.0
57.508104640 68.0
57.513028496 54.0
57.517952352 60.0
57.522876208 60.0
57.527800064 47.0
57.532723920 59.0
57.537647776 63.0
57.542571632 63.0
57.547495488 63.0
57.552419344 59.0
57.557343200 71.0
57.562267056 67.0
57.567190912 56.0
57.572114768 57.0
57.577038624 45.0
57.581962480 52.0
57.586886336 52.0
57.591810192 60.0
57.596734048 57.0
57.601657904 47.0
57.606581760 53.0
57.611505616 51.0
57.616429472 43.0
57.621353328 61.0
57.626277184 64.0
57.631201040 67.0
57.636124896 64.0
57.641048752 47.0
57.645972608 63.0
57.650896464 53.0
57.655820320 47.0
57.660744176 53.0
57.665668032 69.0
57.670591888 49.0
57.675515744 48.0
57.680439600 58.0
57.685363456 67.0
57.690287312 69.0
57.695211168 34.0
57.700135024 53.0
57.705058880 62.0
57.709982736 62.0
57.714906593 43.0
57.719830449 69.0
57.724754305 50.0
57.729678161 52.0
57.734602017 58.0
57.739525873 51.0
57.744449729 50.0
57.749373585 47.0
57.754297441 71.0
57.759221297 61.0
57.764145153 48.0
57.769069009 68.0
57.773992865 62.0
57.778916721 50.0
57.783840577 62.0
57.788764433 63.0
57.793688289 58.0
57.798612145 65.0
57.803536001 58.0
57.808459857 65.0
57.813383713 51.0
57.818307569 63.0
57.823231425 52.0
57.828155281 54.0
57.833079137 71.0
57.838002993 70.0
57.842926849 65.0
57.847850705 64.0
57.852774561 60.0
57.857698417 49.0
57.862622273 62.0
57.867546129 68.0
57.872469985 68.0
57.877393841 52.0
57.882317697 58.0
57.887241553 56.0
57.892165409 59.0
57.897089265 65.0
57.902013121 64.0
57.906936977 66.0
57.911860833 53.0
57.916784689 55.0
57.921708545 57.0
57.926632401 63.0
57.931556257 55.0
57.936480113 48.0
57.941403969 58.0
57.946327825 58.0
57.951251681 58.0
57.956175537 43.0
57.961099393 64.0
57.966023249 71.0
57.970947105 62.0
57.975870961 61.0
57.980794817 53.0
57.985718673 60.0
57.990642529 62.0
57.995566385 67.0
58.000490241 55.0
58.005414097 47.0
58.010337953 54.0
58.015261809 58.0
58.020185665 67.0
58.025109521 53.0
58.030033377 47.0
58.034957233 52.0
58.039881089 53.0
58.044804945 58.0
58.049728801 65.0
58.054652657 53.0
58.059576513 43.0
58.064500369 59.0
58.069424225 62.0
58.074348081 61.0
58.079271937 55.0
58.084195793 54.0
58.089119649 59.0
58.094043505 59.0
58.098967361 65.0
58.103891217 54.0
58.108815073 47.0
58.113738929 51.0
58.118662785 57.0
58.123586641 57.0
58.128510498 69.0
58.133434354 56.0
58.138358210 64.0
58.143282066 67.0
58.148205922 56.0
58.153129778 70.0
58.158053634 56.0
58.162977490 65.0
58.167901346 67.0
58.172825202 58.0
58.177749058 69.0
58.182672914 57.0
58.187596770 57.0
58.192520626 54.0
58.197444482 58.0
58.202368338 50.0
58.207292194 54.0
58.212216050 43.0
58.217139906 51.0
58.222063762 52.0
58.226987618 47.0
58.231911474 69.0
58.236835330 66.0
58.241759186 61.0
58.246683042 59.0
58.251606898 63.0
58.256530754 56.0
58.261454610 55.0
58.266378466 67.0
58.271302322 55.0
58.276226178 56.0
58.281150034 63.0
58.286073890 49.0
58.290997746 71.0
58.295921602 58.0
58.300845458 74.0
58.305769314 61.0
58.310693170 52.0
58.315617026 60.0
58.320540882 56.0
58.325464738 65.0
58.330388594 54.0
58.335312450 52.0
58.340236306 57.0
58.345160162 49.0
58.350084018 51.0
58.355007874 60.0
58.359931730 48.0
58.364855586 60.0
58.369779442 49.0
58.374703298 59.0
58.379627154 60.0
58.384551010 61.0
58.389474866 52.0
58.394398722 55.0
58.399322578 61.0
58.404246434 60.0
58.409170290 45.0
58.414094146 63.0
58.419018002 60.0
58.423941858 55.0
58.428865714 60.0
58.433789570 49.0
58.438713426 65.0
58.443637282 50.0
58.448561138 73.0
58.453484994 55.0
58.458408850 67.0
58.463332706 57.0
58.468256562 44.0
58.473180418 65.0
58.478104274 47.0
58.483028130 53.0
58.487951986 65.0
58.492875842 66.0
58.497799698 57.0
58.502723554 68.0
58.507647410 61.0
58.512571266 65.0
58.517495122 60.0
58.522418978 54.0
58.527342834 43.0
58.532266690 62.0
58.537190546 59.0
58.542114402 49.0
58.547038259 58.0
58.551962115 66.0
58.556885971 54.0
58.561809827 60.0
58.566733683 54.0
58.571657539 64.0
58.576581395 72.0
58.581505251 41.0
58.586429107 48.0
58.591352963 54.0
58.596276819 66.0
58.601200675 52.0
58.606124531 56.0
58.611048387 45.0
58.615972243 52.0
58.620896099 66.0
58.625819955 56.0
58.630743811 72.0
58.635667667 51.0
58.640591523 45.0
58.645515379 54.0
58.650439235 40.0
58.655363091 60.0
58.660286947 51.0
58.665210803 55.0
58.670134659 54.0
58.675058515 57.0
58.679982371 45.0
58.684906227 45.0
58.689830083 51.0
58.694753939 53.0
58.699677795 55.0
58.704601651 62.0
58.709525507 67.0
58.714449363 55.0
58.719373219 54.0
58.724297075 69.0
58.729220931 67.0
58.734144787 48.0
58.739068643 48.0
58.743992499 64.0
58.748916355 49.0
58.753840211 53.0
58.758764067 56.0
58.763687923 50.0
58.768611779 53.0
58.773535635 40.0
58.778459491 48.0
58.783383347 49.0
58.788307203 48.0
58.793231059 52.0
58.798154915 53.0
58.803078771 61.0
58.808002627 59.0
58.812926483 77.0
58.817850339 59.0
58.822774195 58.0
58.827698051 50.0
58.832621907 72.0
58.837545763 52.0
58.842469619 62.0
58.847393475 48.0
58.852317331 51.0
58.857241187 46.0
58.862165043 58.0
58.867088899 66.0
58.872012755 62.0
58.876936611 51.0
58.881860467 56.0
58.886784323 60.0
58.891708179 64.0
58.896632035 56.0
58.901555891 47.0
58.906479747 63.0
58.911403603 57.0
58.916327459 52.0
58.921251315 56.0
58.926175171 59.0
58.931099027 62.0
58.936022883 57.0
58.940946739 59.0
58.945870595 63.0
58.950794451 42.0
58.955718307 67.0
58.960642164 43.0
58.965566020 66.0
58.970489876 56.0
58.975413732 53.0
58.980337588 51.0
58.985261444 54.0
58.990185300 60.0
58.995109156 62.0
59.000033012 61.0
59.004956868 57.0
59.009880724 59.0
59.014804580 60.0
59.019728436 50.0
59.024652292 46.0
59.029576148 58.0
59.034500004 54.0
59.039423860 50.0
59.044347716 54.0
59.049271572 55.0
59.054195428 59.0
59.059119284 51.0
59.064043140 48.0
59.068966996 50.0
59.073890852 59.0
59.078814708 63.0
59.083738564 45.0
59.088662420 54.0
59.093586276 56.0
59.098510132 55.0
59.103433988 49.0
59.108357844 50.0
59.113281700 48.0
59.118205556 47.0
59.123129412 55.0
59.128053268 53.0
59.132977124 67.0
59.137900980 59.0
59.142824836 59.0
59.147748692 45.0
59.152672548 46.0
59.157596404 59.0
59.162520260 51.0
59.167444116 62.0
59.172367972 55.0
59.177291828 58.0
59.182215684 57.0
59.187139540 55.0
59.192063396 62.0
59.196987252 64.0
59.201911108 60.0
59.206834964 56.0
59.211758820 47.0
59.216682676 55.0
59.221606532 60.0
59.226530388 58.0
59.231454244 57.0
59.236378100 55.0
59.241301956 59.0
59.246225812 49.0
59.251149668 65.0
59.256073524 50.0
59.260997380 42.0
59.265921236 48.0
59.270845092 53.0
59.275768948 57.0
59.280692804 74.0
59.285616660 55.0
59.290540516 64.0
59.295464372 73.0
59.300388228 55.0
59.305312084 53.0
59.310235940 54.0
59.315159796 56.0
59.320083652 60.0
59.325007508 47.0
59.329931364 54.0
59.334855220 79.0
59.339779076 67.0
59.344702932 54.0
59.349626788 56.0
59.354550644 48.0
59.359474500 53.0
59.364398356 52.0
59.369322212 51.0
59.374246068 70.0
59.379169925 44.0
59.384093781 59.0
59.389017637 66.0
59.393941493 56.0
59.398865349 65.0
59.403789205 67.0
59.408713061 53.0
59.413636917 59.0
59.418560773 57.0
59.423484629 75.0
59.428408485 55.0
59.433332341 56.0
59.438256197 59.0
59.443180053 52.0
59.448103909 61.0
59.453027765 66.0
59.457951621 70.0
59.462875477 55.0
59.467799333 62.0
59.472723189 74.0
59.477647045 45.0
59.482570901 74.0
59.487494757 43.0
59.492418613 49.0
59.497342469 62.0
59.502266325 60.0
59.507190181 46.0
59.512114037 57.0
59.517037893 51.0
59.521961749 66.0
59.526885605 63.0
59.531809461 56.0
59.536733317 51.0
59.541657173 58.0
59.546581029 59.0
59.551504885 54.0
59.556428741 66.0
59.561352597 54.0
59.566276453 54.0
59.571200309 67.0
59.576124165 65.0
59.581048021 55.0
59.585971877 42.0
59.590895733 53.0
59.595819589 54.0
59.600743445 52.0
59.605667301 52.0
59.610591157 59.0
59.615515013 55.0
59.620438869 57.0
59.625362725 49.0
59.630286581 58.0
59.635210437 58.0
59.640134293 54.0
59.645058149 56.0
59.649982005 67.0
59.654905861 68.0
59.659829717 51.0
59.664753573 46.0
59.669677429 51.0
59.674601285 55.0
59.679525141 50.0
59.684448997 56.0
59.689372853 60.0
59.694296709 60.0
59.699220565 49.0
59.704144421 61.0
59.709068277 59.0
59.713992133 64.0
59.718915989 64.0
59.723839845 67.0
59.728763701 48.0
59.733687557 52.0
59.738611413 56.0
59.743535269 57.0
59.748459125 44.0
59.753382981 51.0
59.758306837 52.0
59.763230693 56.0
59.768154549 62.0
59.773078405 50.0
59.778002261 63.0
59.782926117 47.0
59.787849973 56.0
59.792773829 66.0
59.797697686 60.0
59.802621542 61.0
59.807545398 60.0
59.812469254 59.0
59.817393110 59.0
59.822316966 62.0
59.827240822 51.0
59.832164678 58.0
59.837088534 47.0
59.842012390 48.0
59.846936246 62.0
59.851860102 63.0
59.856783958 59.0
59.861707814 48.0
59.866631670 47.0
59.871555526 57.0
59.876479382 66.0
59.881403238 53.0
59.886327094 60.0
59.891250950 55.0
59.896174806 58.0
59.901098662 62.0
59.906022518 48.0
59.910946374 45.0
59.915870230 47.0
59.920794086 57.0
59.925717942 66.0
59.930641798 52.0
59.935565654 56.0
59.940489510 48.0
59.945413366 51.0
59.950337222 68.0
59.955261078 46.0
59.960184934 67.0
59.965108790 61.0
59.970032646 52.0
59.974956502 79.0
59.979880358 66.0
59.984804214 63.0
59.989728070 56.0
59.994651926 61.0
59.999575782 60.0
60.004499638 67.0
60.009423494 54.0
60.014347350 67.0
60.019271206 49.0
60.024195062 45.0
60.029118918 48.0
60.034042774 56.0
60.038966630 59.0
60.043890486 68.0
60.048814342 62.0
60.053738198 45.0
60.058662054 65.0
60.063585910 52.0
60.068509766 61.0
60.073433622 54.0
60.078357478 65.0
60.083281334 52.0
60.088205190 60.0
60.093129046 74.0
60.098052902 60.0
60.102976758 67.0
60.107900614 62.0
60.112824470 53.0
60.117748326 57.0
60.122672182 58.0
60.127596038 65.0
60.132519894 48.0
60.137443750 59.0
60.142367606 73.0
60.147291462 60.0
60.152215318 56.0
60.157139174 60.0
60.162063030 59.0
60.166986886 68.0
60.171910742 58.0
60.176834598 60.0
60.181758454 57.0
60.186682310 54.0
60.191606166 56.0
60.196530022 58.0
60.201453878 54.0
60.206377734 53.0
60.211301591 50.0
60.216225447 55.0
60.221149303 63.0
60.226073159 82.0
60.230997015 60.0
60.235920871 74.0
60.240844727 64.0
60.245768583 57.0
60.250692439 59.0
60.255616295 41.0
60.260540151 61.0
60.265464007 59.0
60.270387863 57.0
60.275311719 54.0
60.280235575 67.0
60.285159431 69.0
60.290083287 66.0
60.295007143 76.0
60.299930999 48.0
60.304854855 67.0
60.309778711 53.0
60.314702567 81.0
60.319626423 69.0
60.324550279 79.0
60.329474135 75.0
60.334397991 71.0
60.339321847 67.0
60.344245703 54.0
60.349169559 56.0
60.354093415 65.0
60.359017271 56.0
60.363941127 65.0
60.368864983 68.0
60.373788839 57.0
60.378712695 57.0
60.383636551 52.0
60.388560407 56.0
60.393484263 67.0
60.398408119 67.0
60.403331975 60.0
60.408255831 75.0
60.413179687 56.0
60.418103543 64.0
60.423027399 53.0
60.427951255 55.0
60.432875111 57.0
60.437798967 62.0
60.442722823 55.0
60.447646679 68.0
60.452570535 54.0
60.457494391 52.0
60.462418247 57.0
60.467342103 55.0
60.472265959 48.0
60.477189815 68.0
60.482113671 53.0
60.487037527 75.0
60.491961383 52.0
60.496885239 58.0
60.501809095 54.0
60.506732951 67.0
60.511656807 54.0
60.516580663 73.0
60.521504519 54.0
60.526428375 55.0
60.531352231 68.0
60.536276087 62.0
60.541199943 68.0
60.546123799 58.0
60.551047655 68.0
60.555971511 53.0
60.560895367 50.0
60.565819223 71.0
60.570743079 42.0
60.575666935 67.0
60.580590791 54.0
60.585514647 65.0
60.590438503 63.0
60.595362359 69.0
60.600286215 71.0
60.605210071 81.0
60.610133927 69.0
60.615057783 61.0
60.619981639 60.0
60.624905495 80.0
60.629829352 62.0
60.634753208 78.0
60.639677064 67.0
60.644600920 70.0
60.649524776 57.0
60.654448632 65.0
60.659372488 78.0
60.664296344 81.0
60.669220200 63.0
60.674144056 61.0
60.679067912 65.0
60.683991768 79.0
60.688915624 75.0
60.693839480 69.0
60.698763336 75.0
60.703687192 68.0
60.708611048 70.0
60.713534904 76.0
60.718458760 80.0
60.723382616 96.0
60.728306472 70.0
60.733230328 86.0
60.738154184 109.0
60.743078040 87.0
60.748001896 104.0
60.752925752 102.0
60.757849608 106.0
60.762773464 121.0
60.767697320 119.0
60.772621176 129.0
60.777545032 146.0
60.782468888 159.0
60.787392744 186.0
60.792316600 188.0
60.797240456 295.0
60.802164312 303.0
60.807088168 368.0
60.812012024 415.0
60.816935880 492.0
60.821859736 543.0
60.826783592 651.0
60.831707448 653.0
60.836631304 736.0
60.841555160 743.0
60.846479016 713.0
60.851402872 713.0
60.856326728 655.0
60.861250584 549.0
60.866174440 484.0
60.871098296 467.0
60.876022152 406.0
60.880946008 372.0
60.885869864 346.0
60.890793720 303.0
60.895717576 303.0
60.900641432 282.0
60.905565288 313.0
60.910489144 332.0
60.915413000 355.0
60.920336856 296.0
60.925260712 295.0
60.930184568 275.0
60.935108424 260.0
60.940032280 207.0
60.944956136 166.0
60.949879992 160.0
60.954803848 150.0
60.959727704 141.0
60.964651560 128.0
60.969575416 139.0
60.974499272 121.0
60.979423128 113.0
60.984346984 104.0
60.989270840 99.0
60.994194696 96.0
60.999118552 93.0
61.004042408 90.0
61.008966264 87.0
61.013890120 92.0
61.018813976 105.0
61.023737832 91.0
61.028661688 91.0
61.033585544 81.0
61.038509400 85.0
61.043433256 73.0
61.048357113 80.0
61.053280969 94.0
61.058204825 84.0
61.063128681 76.0
61.068052537 77.0
61.072976393 87.0
61.077900249 74.0
61.082824105 66.0
61.087747961 79.0
61.092671817 66.0
61.097595673 77.0
61.102519529 82.0
61.107443385 98.0
61.112367241 82.0
61.117291097 73.0
61.122214953 70.0
61.127138809 68.0
61.132062665 69.0
61.136986521 69.0
61.141910377 79.0
61.146834233 73.0
61.151758089 72.0
61.156681945 79.0
61.161605801 68.0
61.166529657 78.0
61.171453513 67.0
61.176377369 77.0
61.181301225 61.0
61.186225081 75.0
61.191148937 66.0
61.196072793 72.0
61.200996649 71.0
61.205920505 62.0
61.210844361 81.0
61.215768217 75.0
61.220692073 60.0
61.225615929 65.0
61.230539785 64.0
61.235463641 64.0
61.240387497 76.0
61.245311353 61.0
61.250235209 79.0
61.255159065 84.0
61.260082921 71.0
61.265006777 66.0
61.269930633 66.0
61.274854489 71.0
61.279778345 72.0
61.284702201 70.0
61.289626057 72.0
61.294549913 73.0
61.299473769 55.0
61.304397625 71.0
61.309321481 66.0
61.314245337 66.0
61.319169193 54.0
61.324093049 58.0
61.329016905 57.0
61.333940761 65.0
61.338864617 65.0
61.343788473 63.0
61.348712329 66.0
61.353636185 63.0
61.358560041 60.0
61.363483897 64.0
61.368407753 69.0
61.373331609 62.0
61.378255465 73.0
61.383179321 79.0
61.388103177 74.0
61.393027033 82.0
61.397950889 55.0
61.402874745 73.0
61.407798601 57.0
61.412722457 59.0
61.417646313 58.0
61.422570169 60.0
61.427494025 66.0
61.432417881 67.0
61.437341737 57.0
61.442265593 80.0
61.447189449 67.0
61.452113305 64.0
61.457037161 64.0
61.461961018 58.0
61.466884874 58.0
61.471808730 60.0
61.476732586 76.0
61.481656442 59.0
61.486580298 68.0
61.491504154 67.0
61.496428010 59.0
61.501351866 66.0
61.506275722 81.0
61.511199578 70.0
61.516123434 60.0
61.521047290 63.0
61.525971146 51.0
61.530895002 52.0
61.535818858 50.0
61.540742714 69.0
61.545666570 52.0
61.550590426 59.0
61.555514282 55.0
61.560438138 77.0
61.565361994 71.0
61.570285850 53.0
61.575209706 50.0
61.580133562 56.0
61.585057418 74.0
61.589981274 55.0
61.594905130 68.0
61.599828986 55.0
61.604752842 54.0
61.609676698 76.0
61.614600554 70.0
61.619524410 62.0
61.624448266 53.0
61.629372122 69.0
61.634295978 48.0
61.639219834 66.0
61.644143690 64.0
61.649067546 51.0
61.653991402 71.0
61.658915258 65.0
61.663839114 61.0
61.668762970 62.0
61.673686826 60.0
61.678610682 73.0
61.683534538 70.0
61.688458394 60.0
61.693382250 55.0
61.698306106 50.0
61.703229962 52.0
61.708153818 58.0
61.713077674 73.0
61.718001530 65.0
61.722925386 60.0
61.727849242 57.0
61.732773098 54.0
61.737696954 65.0
61.742620810 57.0
61.747544666 62.0
61.752468522 58.0
61.757392378 55.0
61.762316234 70.0
61.767240090 55.0
61.772163946 60.0
61.777087802 61.0
61.782011658 75.0
61.786935514 52.0
61.791859370 73.0
61.796783226 62.0
61.801707082 48.0
61.806630938 66.0
61.811554794 62.0
61.816478650 60.0
61.821402506 44.0
61.826326362 64.0
61.831250218 66.0
61.836174074 48.0
61.841097930 64.0
61.846021786 48.0
61.850945642 62.0
61.855869498 66.0
61.860793354 61.0
61.865717210 68.0
61.870641066 47.0
61.875564922 71.0
61.880488779 62.0
61.885412635 59.0
61.890336491 57.0
61.895260347 58.0
61.900184203 50.0
61.905108059 55.0
61.910031915 58.0
61.914955771 61.0
61.919879627 66.0
61.924803483 63.0
61.929727339 77.0
61.934651195 58.0
61.939575051 60.0
61.944498907 66.0
61.949422763 54.0
61.954346619 67.0
61.959270475 65.0
61.964194331 44.0
61.969118187 70.0
61.974042043 52.0
61.978965899 66.0
61.983889755 67.0
61.988813611 45.0
61.993737467 64.0
61.998661323 72.0
62.003585179 62.0
62.008509035 60.0
62.013432891 62.0
62.018356747 53.0
62.023280603 61.0
62.028204459 56.0
62.033128315 67.0
62.038052171 68.0
62.042976027 62.0
62.047899883 57.0
62.052823739 53.0
62.057747595 50.0
62.062671451 59.0
62.067595307 59.0
62.072519163 51.0
62.077443019 62.0
62.082366875 64.0
62.087290731 69.0
62.092214587 59.0
62.097138443 53.0
62.102062299 65.0
62.106986155 70.0
62.111910011 55.0
62.116833867 58.0
62.121757723 73.0
62.126681579 59.0
62.131605435 84.0
62.136529291 59.0
62.141453147 57.0
62.146377003 55.0
62.151300859 64.0
62.156224715 69.0
62.161148571 50.0
62.166072427 65.0
62.170996283 65.0
62.175920139 68.0
62.180843995 59.0
62.185767851 56.0
62.190691707 61.0
62.195615563 67.0
62.200539419 62.0
62.205463275 63.0
62.210387131 59.0
62.215310987 63.0
62.220234843 59.0
62.225158699 80.0
62.230082555 64.0
62.235006411 47.0
62.239930267 71.0
62.244854123 60.0
62.249777979 66.0
62.254701835 60.0
62.259625691 58.0
62.264549547 53.0
62.269473403 71.0
62.274397259 53.0
62.279321115 58.0
62.284244971 60.0
62.289168827 62.0
62.294092684 56.0
62.299016540 52.0
62.303940396 64.0
62.308864252 53.0
62.313788108 59.0
62.318711964 56.0
62.323635820 54.0
62.328559676 63.0
62.333483532 62.0
62.338407388 50.0
62.343331244 53.0
62.348255100 71.0
62.353178956 56.0
62.358102812 70.0
62.363026668 46.0
62.367950524 73.0
62.372874380 61.0
62.377798236 68.0
62.382722092 68.0
62.387645948 66.0
62.392569804 65.0
62.397493660 62.0
62.402417516 59.0
62.407341372 59.0
62.412265228 78.0
62.417189084 68.0
62.422112940 62.0
62.427036796 60.0
62.431960652 57.0
62.436884508 63.0
62.441808364 52.0
62.446732220 64.0
62.451656076 60.0
62.456579932 64.0
62.461503788 67.0
62.466427644 76.0
62.471351500 59.0
62.476275356 65.0
62.481199212 59.0
62.486123068 50.0
62.491046924 63.0
62.495970780 56.0
62.500894636 63.0
62.505818492 57.0
62.510742348 54.0
62.515666204 53.0
62.520590060 65.0
62.525513916 54.0
62.530437772 52.0
62.535361628 85.0
62.540285484 57.0
62.545209340 58.0
62.550133196 63.0
62.555057052 67.0
62.559980908 62.0
62.564904764 60.0
62.569828620 53.0
62.574752476 57.0
62.579676332 64.0
62.584600188 73.0
62.589524044 46.0
62.594447900 56.0
62.599371756 66.0
62.604295612 71.0
62.609219468 65.0
62.614143324 71.0
62.619067180 55.0
62.623991036 59.0
62.628914892 68.0
62.633838748 61.0
62.638762604 72.0
62.643686460 35.0
62.648610316 58.0
62.653534172 59.0
62.658458028 54.0
62.663381884 59.0
62.668305740 74.0
62.673229596 60.0
62.678153452 54.0
62.683077308 53.0
62.688001164 64.0
62.692925020 69.0
62.697848876 70.0
62.702772732 56.0
62.707696588 68.0
62.712620445 73.0
62.717544301 55.0
62.722468157 50.0
62.727392013 62.0
62.732315869 53.0
62.737239725 71.0
62.742163581 77.0
62.747087437 69.0
62.752011293 51.0
62.756935149 59.0
62.761859005 63.0
62.766782861 65.0
62.771706717 54.0
62.776630573 62.0
62.781554429 68.0
62.786478285 71.0
62.791402141 68.0
62.796325997 55.0
62.801249853 61.0
62.806173709 65.0
62.811097565 70.0
62.816021421 54.0
62.820945277 61.0
62.825869133 65.0
62.830792989 83.0
62.835716845 61.0
62.840640701 67.0
62.845564557 73.0
62.850488413 73.0
62.855412269 60.0
62.860336125 62.0
62.865259981 49.0
62.870183837 50.0
62.875107693 54.0
62.880031549 79.0
62.884955405 75.0
62.889879261 62.0
62.894803117 72.0
62.899726973 68.0
62.904650829 56.0
62.909574685 77.0
62.914498541 77.0
62.919422397 61.0
62.924346253 56.0
62.929270109 67.0
62.934193965 86.0
62.939117821 68.0
62.944041677 73.0
62.948965533 69.0
62.953889389 51.0
62.958813245 72.0
62.963737101 43.0
62.968660957 48.0
62.973584813 66.0
62.978508669 59.0
62.983432525 74.0
62.988356381 65.0
62.993280237 70.0
62.998204093 73.0
63.003127949 66.0
63.008051805 61.0
63.012975661 65.0
63.017899517 52.0
63.022823373 53.0
63.027747229 68.0
63.032671085 44.0
63.037594941 53.0
63.042518797 62.0
63.047442653 79.0
63.052366509 62.0
63.057290365 66.0
63.062214221 71.0
63.067138077 48.0
63.072061933 52.0
63.076985789 71.0
63.081909645 61.0
63.086833501 66.0
63.091757357 52.0
63.096681213 61.0
63.101605069 63.0
63.106528925 65.0
63.111452781 74.0
63.116376637 68.0
63.121300493 63.0
63.126224349 68.0
63.131148206 74.0
63.136072062 55.0
63.140995918 64.0
63.145919774 70.0
63.150843630 80.0
63.155767486 59.0
63.160691342 78.0
63.165615198 55.0
63.170539054 56.0
63.175462910 56.0
63.180386766 60.0
63.185310622 69.0
63.190234478 51.0
63.195158334 72.0
63.200082190 61.0
63.205006046 67.0
63.209929902 72.0
63.214853758 59.0
63.219777614 67.0
63.224701470 69.0
63.229625326 59.0
63.234549182 64.0
63.239473038 59.0
63.244396894 56.0
63.249320750 70.0
63.254244606 53.0
63.259168462 67.0
63.264092318 64.0
63.269016174 72.0
63.273940030 77.0
63.278863886 64.0
63.283787742 68.0
63.288711598 65.0
63.293635454 52.0
63.298559310 52.0
63.303483166 69.0
63.308407022 67.0
63.313330878 59.0
63.318254734 53.0
63.323178590 54.0
63.328102446 67.0
63.333026302 75.0
63.337950158 63.0
63.342874014 52.0
63.347797870 62.0
63.352721726 71.0
63.357645582 50.0
63.362569438 59.0
63.367493294 56.0
63.372417150 52.0
63.377341006 74.0
63.382264862 49.0
63.387188718 80.0
63.392112574 68.0
63.397036430 73.0
63.401960286 64.0
63.406884142 63.0
63.411807998 45.0
63.416731854 69.0
63.421655710 72.0
63.426579566 67.0
63.431503422 70.0
63.436427278 65.0
63.441351134 65.0
63.446274990 73.0
63.451198846 62.0
63.456122702 69.0
63.461046558 61.0
63.465970414 41.0
63.470894270 60.0
63.475818126 54.0
63.480741982 62.0
63.485665838 74.0
63.490589694 56.0
63.495513550 60.0
63.500437406 58.0
63.505361262 57.0
63.510285118 69.0
63.515208974 54.0
63.520132830 71.0
63.525056686 63.0
63.529980542 74.0
63.534904398 63.0
63.539828254 67.0
63.544752111 72.0
63.549675967 57.0
63.554599823 68.0
63.559523679 73.0
63.564447535 63.0
63.569371391 59.0
63.574295247 58.0
63.579219103 69.0
63.584142959 44.0
63.589066815 69.0
63.593990671 59.0
63.598914527 54.0
63.603838383 55.0
63.608762239 62.0
63.613686095 48.0
63.618609951 54.0
63.623533807 65.0
63.628457663 71.0
63.633381519 71.0
63.638305375 71.0
63.643229231 63.0
63.648153087 60.0
63.653076943 61.0
63.658000799 65.0
63.662924655 66.0
63.667848511 64.0
63.672772367 66.0
63.677696223 69.0
63.682620079 56.0
63.687543935 67.0
63.692467791 73.0
63.697391647 63.0
63.702315503 56.0
63.707239359 71.0
63.712163215 76.0
63.717087071 51.0
63.722010927 58.0
63.726934783 58.0
63.731858639 73.0
63.736782495 57.0
63.741706351 66.0
63.746630207 63.0
63.751554063 63.0
63.756477919 68.0
63.761401775 62.0
63.766325631 66.0
63.771249487 67.0
63.776173343 74.0
63.781097199 64.0
63.786021055 60.0
63.790944911 62.0
63.795868767 64.0
63.800792623 69.0
63.805716479 82.0
63.810640335 77.0
63.815564191 67.0
63.820488047 63.0
63.825411903 63.0
63.830335759 68.0
63.835259615 63.0
63.840183471 64.0
63.845107327 68.0
63.850031183 49.0
63.854955039 52.0
63.859878895 62.0
63.864802751 74.0
63.869726607 66.0
63.874650463 59.0
63.879574319 62.0
63.884498175 78.0
63.889422031 67.0
63.894345887 58.0
63.899269743 49.0
63.904193599 72.0
63.909117455 76.0
63.914041311 62.0
63.918965167 61.0
63.923889023 63.0
63.928812879 63.0
63.933736735 65.0
63.938660591 68.0
63.943584447 64.0
63.948508303 57.0
63.953432159 54.0
63.958356015 58.0
63.963279872 63.0
63.968203728 62.0
63.973127584 57.0
63.978051440 75.0
63.982975296 72.0
63.987899152 58.0
63.992823008 75.0
63.997746864 52.0
64.002670720 80.0
64.007594576 54.0
64.012518432 54.0
64.017442288 67.0
64.022366144 80.0
64.027290000 63.0
64.032213856 76.0
64.037137712 65.0
64.042061568 67.0
64.046985424 58.0
64.051909280 67.0
64.056833136 65.0
64.061756992 61.0
64.066680848 61.0
64.071604704 64.0
64.076528560 71.0
64.081452416 63.0
64.086376272 42.0
64.091300128 46.0
64.096223984 53.0
64.101147840 69.0
64.106071696 71.0
64.110995552 73.0
64.115919408 64.0
64.120843264 54.0
64.125767120 64.0
64.130690976 70.0
64.135614832 74.0
64.140538688 71.0
64.145462544 80.0
64.150386400 62.0
64.155310256 70.0
64.160234112 57.0
64.165157968 71.0
64.170081824 58.0
64.175005680 63.0
64.179929536 61.0
64.184853392 63.0
64.189777248 72.0
64.194701104 65.0
64.199624960 62.0
64.204548816 58.0
64.209472672 71.0
64.214396528 50.0
64.219320384 67.0
64.224244240 54.0
64.229168096 73.0
64.234091952 66.0
64.239015808 78.0
64.243939664 53.0
64.248863520 65.0
64.253787376 58.0
64.258711232 58.0
64.263635088 58.0
64.268558944 73.0
64.273482800 77.0
64.278406656 59.0
64.283330512 58.0
64.288254368 69.0
64.293178224 68.0
64.298102080 76.0
64.303025936 70.0
64.307949792 73.0
64.312873648 71.0
64.317797504 68.0
64.322721360 71.0
64.327645216 75.0
64.332569072 64.0
64.337492928 70.0
64.342416784 54.0
64.347340640 58.0
64.352264496 82.0
64.357188352 69.0
64.362112208 48.0
64.367036064 68.0
64.371959920 62.0
64.376883776 67.0
64.381807633 80.0
64.386731489 66.0
64.391655345 72.0
64.396579201 67.0
64.401503057 67.0
64.406426913 63.0
64.411350769 63.0
64.416274625 70.0
64.421198481 71.0
64.426122337 55.0
64.431046193 86.0
64.435970049 78.0
64.440893905 70.0
64.445817761 67.0
64.450741617 76.0
64.455665473 84.0
64.460589329 70.0
64.465513185 70.0
64.470437041 62.0
64.475360897 76.0
64.480284753 67.0
64.485208609 66.0
64.490132465 75.0
64.495056321 73.0
64.499980177 66.0
64.504904033 57.0
64.509827889 74.0
64.514751745 57.0
64.519675601 51.0
64.524599457 68.0
64.529523313 56.0
64.534447169 70.0
64.539371025 83.0
64.544294881 87.0
64.549218737 63.0
64.554142593 68.0
64.559066449 74.0
64.563990305 64.0
64.568914161 57.0
64.573838017 72.0
64.578761873 60.0
64.583685729 59.0
64.588609585 76.0
64.593533441 79.0
64.598457297 71.0
64.603381153 71.0
64.608305009 74.0
64.613228865 70.0
64.618152721 70.0
64.623076577 71.0
64.628000433 81.0
64.632924289 67.0
64.637848145 66.0
64.642772001 65.0
64.647695857 72.0
64.652619713 71.0
64.657543569 68.0
64.662467425 76.0
64.667391281 60.0
64.672315137 65.0
64.677238993 67.0
64.682162849 78.0
64.687086705 66.0
64.692010561 73.0
64.696934417 69.0
64.701858273 67.0
64.706782129 76.0
64.711705985 74.0
64.716629841 67.0
64.721553697 62.0
64.726477553 69.0
64.731401409 61.0
64.736325265 94.0
64.741249121 71.0
64.746172977 72.0
64.751096833 67.0
64.756020689 75.0
64.760944545 73.0
64.765868401 67.0
64.770792257 93.0
64.775716113 69.0
64.780639969 71.0
64.785563825 78.0
64.790487681 69.0
64.795411538 64.0
64.800335394 88.0
64.805259250 64.0
64.810183106 81.0
64.815106962 82.0
64.820030818 88.0
64.824954674 79.0
64.829878530 83.0
64.834802386 97.0
64.839726242 90.0
64.844650098 95.0
64.849573954 83.0
64.854497810 88.0
64.859421666 87.0
64.864345522 80.0
64.869269378 86.0
64.874193234 90.0
64.879117090 75.0
64.884040946 85.0
64.888964802 84.0
64.893888658 89.0
64.898812514 86.0
64.903736370 87.0
64.908660226 98.0
64.913584082 91.0
64.918507938 98.0
64.923431794 102.0
64.928355650 110.0
64.933279506 93.0
64.938203362 119.0
64.943127218 105.0
64.948051074 102.0
64.952974930 97.0
64.957898786 123.0
64.962822642 123.0
64.967746498 110.0
64.972670354 128.0
64.977594210 106.0
64.982518066 113.0
64.987441922 111.0
64.992365778 108.0
64.997289634 105.0
65.002213490 94.0
65.007137346 97.0
65.012061202 85.0
65.016985058 100.0
65.021908914 96.0
65.026832770 95.0
65.031756626 89.0
65.036680482 81.0
65.041604338 111.0
65.046528194 92.0
65.051452050 101.0
65.056375906 94.0
65.061299762 102.0
65.066223618 81.0
65.071147474 109.0
65.076071330 106.0
65.080995186 78.0
65.085919042 94.0
65.090842898 90.0
65.095766754 83.0
65.100690610 85.0
65.105614466 100.0
65.110538322 85.0
65.115462178 69.0
65.120386034 105.0
65.125309890 105.0
65.130233746 89.0
65.135157602 102.0
65.140081458 79.0
65.145005314 101.0
65.149929170 92.0
65.154853026 84.0
65.159776882 113.0
65.164700738 106.0
65.169624594 87.0
65.174548450 104.0
65.179472306 79.0
65.184396162 80.0
65.189320018 85.0
65.194243874 72.0
65.199167730 93.0
65.204091586 91.0
65.209015442 98.0
65.213939299 85.0
65.218863155 76.0
65.223787011 93.0
65.228710867 86.0
65.233634723 84.0
65.238558579 76.0
65.243482435 92.0
65.248406291 85.0
65.253330147 81.0
65.258254003 88.0
65.263177859 83.0
65.268101715 96.0
65.273025571 98.0
65.277949427 90.0
65.282873283 84.0
65.287797139 89.0
65.292720995 91.0
65.297644851 90.0
65.302568707 84.0
65.307492563 86.0
65.312416419 90.0
65.317340275 88.0
65.322264131 75.0
65.327187987 83.0
65.332111843 102.0
65.337035699 105.0
65.341959555 96.0
65.346883411 82.0
65.351807267 81.0
65.356731123 88.0
65.361654979 68.0
65.366578835 74.0
65.371502691 78.0
65.376426547 89.0
65.381350403 95.0
65.386274259 84.0
65.391198115 82.0
65.396121971 92.0
65.401045827 73.0
65.405969683 77.0
65.410893539 89.0
65.415817395 76.0
65.420741251 86.0
65.425665107 77.0
65.430588963 109.0
65.435512819 99.0
65.440436675 63.0
65.445360531 87.0
65.450284387 78.0
65.455208243 69.0
65.460132099 90.0
65.465055955 88.0
65.469979811 85.0
65.474903667 101.0
65.479827523 80.0
65.484751379 78.0
65.489675235 91.0
65.494599091 77.0
65.499522947 87.0
65.504446803 96.0
65.509370659 90.0
65.514294515 96.0
65.519218371 98.0
65.524142227 79.0
65.529066083 83.0
65.533989939 83.0
65.538913795 68.0
65.543837651 88.0
65.548761507 90.0
65.553685363 85.0
65.558609219 100.0
65.563533075 91.0
65.568456931 67.0
65.573380787 78.0
65.578304643 79.0
65.583228499 87.0
65.588152355 74.0
65.593076211 95.0
65.598000067 80.0
65.602923923 92.0
65.607847779 93.0
65.612771635 80.0
65.617695491 57.0
65.622619347 69.0
65.627543204 78.0
65.632467060 72.0
65.637390916 79.0
65.642314772 103.0
65.647238628 109.0
65.652162484 77.0
65.657086340 87.0
65.662010196 77.0
65.666934052 93.0
65.671857908 86.0
65.676781764 76.0
65.681705620 78.0
65.686629476 78.0
65.691553332 90.0
65.696477188 85.0
65.701401044 88.0
65.706324900 89.0
65.711248756 103.0
65.716172612 89.0
65.721096468 72.0
65.726020324 83.0
65.730944180 95.0
65.735868036 87.0
65.740791892 86.0
65.745715748 104.0
65.750639604 83.0
65.755563460 86.0
65.760487316 95.0
65.765411172 99.0
65.770335028 71.0
65.775258884 97.0
65.780182740 80.0
65.785106596 104.0
65.790030452 99.0
65.794954308 90.0
65.799878164 92.0
65.804802020 80.0
65.809725876 101.0
65.814649732 94.0
65.819573588 86.0
65.824497444 91.0
65.829421300 97.0
65.834345156 84.0
65.839269012 98.0
65.844192868 78.0
65.849116724 96.0
65.854040580 95.0
65.858964436 120.0
65.863888292 78.0
65.868812148 91.0
65.873736004 97.0
65.878659860 100.0
65.883583716 91.0
65.888507572 102.0
65.893431428 75.0
65.898355284 98.0
65.903279140 86.0
65.908202996 96.0
65.913126852 86.0
65.918050708 91.0
65.922974564 98.0
65.927898420 113.0
65.932822276 80.0
65.937746132 103.0
65.942669988 91.0
65.947593844 94.0
65.952517700 93.0
65.957441556 121.0
65.962365412 108.0
65.967289268 98.0
65.972213124 85.0
65.977136980 94.0
65.982060836 100.0
65.986984692 111.0
65.991908548 95.0
65.996832404 104.0
66.001756260 88.0
66.006680116 95.0
66.011603972 106.0
66.016527828 89.0
66.021451684 105.0
66.026375540 85.0
66.031299396 98.0
66.036223252 80.0
66.041147108 111.0
66.046070965 120.0
66.050994821 96.0
66.055918677 107.0
66.060842533 94.0
66.065766389 111.0
66.070690245 111.0
66.075614101 100.0
66.080537957 110.0
66.085461813 93.0
66.090385669 98.0
66.095309525 111.0
66.100233381 96.0
66.105157237 105.0
66.110081093 110.0
66.115004949 101.0
66.119928805 108.0
66.124852661 119.0
66.129776517 100.0
66.134700373 90.0
66.139624229 101.0
66.144548085 100.0
66.149471941 112.0
66.154395797 95.0
66.159319653 108.0
66.164243509 121.0
66.169167365 96.0
66.174091221 92.0
66.179015077 98.0
66.183938933 93.0
66.188862789 99.0
66.193786645 123.0
66.198710501 125.0
66.203634357 109.0
66.208558213 114.0
66.213482069 117.0
66.218405925 121.0
66.223329781 115.0
66.228253637 114.0
66.233177493 103.0
66.238101349 118.0
66.243025205 106.0
66.247949061 107.0
66.252872917 112.0
66.257796773 111.0
66.262720629 113.0
66.267644485 117.0
66.272568341 110.0
66.277492197 135.0
66.282416053 129.0
66.287339909 125.0
66.292263765 110.0
66.297187621 121.0
66.302111477 104.0
66.307035333 103.0
66.311959189 110.0
66.316883045 121.0
66.321806901 133.0
66.326730757 125.0
66.331654613 119.0
66.336578469 109.0
66.341502325 101.0
66.346426181 127.0
66.351350037 103.0
66.356273893 113.0
66.361197749 133.0
66.366121605 127.0
66.371045461 136.0
66.375969317 138.0
66.380893173 128.0
66.385817029 115.0
66.390740885 106.0
66.395664741 142.0
66.400588597 122.0
66.405512453 131.0
66.410436309 133.0
66.415360165 128.0
66.420284021 126.0
66.425207877 123.0
66.430131733 132.0
66.435055589 114.0
66.439979445 133.0
66.444903301 125.0
66.449827157 131.0
66.454751013 143.0
66.459674869 125.0
66.464598726 134.0
66.469522582 141.0
66.474446438 144.0
66.479370294 124.0
66.484294150 138.0
66.489218006 138.0
66.494141862 140.0
66.499065718 117.0
66.503989574 130.0
66.508913430 130.0
66.513837286 137.0
66.518761142 145.0
66.523684998 148.0
66.528608854 115.0
66.533532710 125.0
66.538456566 145.0
66.543380422 135.0
66.548304278 132.0
66.553228134 148.0
66.558151990 161.0
66.563075846 134.0
66.567999702 138.0
66.572923558 147.0
66.577847414 111.0
66.582771270 142.0
66.587695126 144.0
66.592618982 165.0
66.597542838 135.0
66.602466694 164.0
66.607390550 136.0
66.612314406 140.0
66.617238262 150.0
66.622162118 151.0
66.627085974 132.0
66.632009830 137.0
66.636933686 136.0
66.641857542 159.0
66.646781398 121.0
66.651705254 133.0
66.656629110 135.0
66.661552966 144.0
66.666476822 154.0
66.671400678 121.0
66.676324534 139.0
66.681248390 163.0
66.686172246 187.0
66.691096102 134.0
66.696019958 164.0
66.700943814 159.0
66.705867670 134.0
66.710791526 146.0
66.715715382 133.0
66.720639238 170.0
66.725563094 140.0
66.730486950 165.0
66.735410806 140.0
66.740334662 142.0
66.745258518 159.0
66.750182374 148.0
66.755106230 151.0
66.760030086 162.0
66.764953942 160.0
66.769877798 152.0
66.774801654 150.0
66.779725510 168.0
66.784649366 162.0
66.789573222 148.0
66.794497078 152.0
66.799420934 144.0
66.804344790 154.0
66.809268646 150.0
66.814192502 155.0
66.819116358 179.0
66.824040214 178.0
66.828964070 146.0
66.833887926 168.0
66.838811782 173.0
66.843735638 158.0
66.848659494 171.0
66.853583350 179.0
66.858507206 168.0
66.863431062 171.0
66.868354918 156.0
66.873278774 174.0
66.878202631 173.0
66.883126487 163.0
66.888050343 178.0
66.892974199 175.0
66.897898055 155.0
66.902821911 183.0
66.907745767 168.0
66.912669623 162.0
66.917593479 178.0
66.922517335 205.0
66.927441191 170.0
66.932365047 157.0
66.937288903 190.0
66.942212759 178.0
66.947136615 184.0
66.952060471 189.0
66.956984327 203.0
66.961908183 195.0
66.966832039 182.0
66.971755895 172.0
66.976679751 189.0
66.981603607 178.0
66.986527463 215.0
66.991451319 191.0
66.996375175 191.0
67.001299031 175.0
67.006222887 163.0
67.011146743 190.0
67.016070599 197.0
67.020994455 191.0
67.025918311 161.0
67.030842167 190.0
67.035766023 164.0
67.040689879 207.0
67.045613735 192.0
67.050537591 188.0
67.055461447 183.0
67.060385303 204.0
67.065309159 191.0
67.070233015 199.0
67.075156871 199.0
67.080080727 197.0
67.085004583 207.0
67.089928439 204.0
67.094852295 211.0
67.099776151 208.0
67.104700007 258.0
67.109623863 195.0
67.114547719 192.0
67.119471575 201.0
67.124395431 198.0
67.129319287 266.0
67.134243143 275.0
67.139166999 270.0
67.144090855 263.0
67.149014711 215.0
67.153938567 262.0
67.158862423 277.0
67.163786279 260.0
67.168710135 203.0
67.173633991 259.0
67.178557847 209.0
67.183481703 280.0
67.188405559 256.0
67.193329415 278.0
67.198253271 208.0
67.203177127 259.0
67.208100983 259.0
67.213024839 260.0
67.217948695 284.0
67.222872551 261.0
67.227796407 210.0
67.232720263 279.0
67.237644119 277.0
67.242567975 264.0
67.247491831 295.0
67.252415687 295.0
67.257339543 274.0
67.262263399 310.0
67.267187255 306.0
67.272111111 318.0
67.277034967 299.0
67.281958823 298.0
67.286882679 261.0
67.291806535 288.0
67.296730392 281.0
67.301654248 265.0
67.306578104 326.0
67.311501960 296.0
67.316425816 316.0
67.321349672 307.0
67.326273528 332.0
67.331197384 315.0
67.336121240 299.0
67.341045096 289.0
67.345968952 321.0
67.350892808 288.0
67.355816664 274.0
67.360740520 320.0
67.365664376 324.0
67.370588232 329.0
67.375512088 324.0
67.380435944 321.0
67.385359800 333.0
67.390283656 328.0
67.395207512 314.0
67.400131368 343.0
67.405055224 322.0
67.409979080 308.0
67.414902936 337.0
67.419826792 320.0
67.424750648 327.0
67.429674504 371.0
67.434598360 355.0
67.439522216 360.0
67.444446072 375.0
67.449369928 352.0
67.454293784 364.0
67.459217640 369.0
67.464141496 363.0
67.469065352 352.0
67.473989208 366.0
67.478913064 371.0
67.483836920 376.0
67.488760776 384.0
67.493684632 368.0
67.498608488 374.0
67.503532344 371.0
67.508456200 368.0
67.513380056 432.0
67.518303912 394.0
67.523227768 383.0
67.528151624 376.0
67.533075480 405.0
67.537999336 414.0
67.542923192 418.0
67.547847048 391.0
67.552770904 401.0
67.557694760 422.0
67.562618616 396.0
67.567542472 435.0
67.572466328 444.0
67.577390184 484.0
67.582314040 411.0
67.587237896 458.0
67.592161752 465.0
67.597085608 397.0
67.602009464 487.0
67.606933320 446.0
67.611857176 442.0
67.616781032 503.0
67.621704888 454.0
67.626628744 463.0
67.631552600 519.0
67.636476456 512.0
67.641400312 516.0
67.646324168 514.0
67.651248024 485.0
67.656171880 534.0
67.661095736 547.0
67.666019592 528.0
67.670943448 566.0
67.675867304 582.0
67.680791160 627.0
67.685715016 576.0
67.690638872 596.0
67.695562728 631.0
67.700486584 639.0
67.705410440 630.0
67.710334296 670.0
67.715258153 664.0
67.720182009 699.0
67.725105865 720.0
67.730029721 751.0
67.734953577 756.0
67.739877433 841.0
67.744801289 840.0
67.749725145 895.0
67.754649001 956.0
67.759572857 1008.0
67.764496713 1074.0
67.769420569 1074.0
67.774344425 1151.0
67.779268281 1197.0
67.784192137 1222.0
67.789115993 1396.0
67.794039849 1349.0
67.798963705 1388.0
67.803887561 1523.0
67.808811417 1441.0
67.813735273 1554.0
67.818659129 1567.0
67.823582985 1675.0
67.828506841 1763.0
67.833430697 1761.0
67.838354553 1735.0
67.843278409 1768.0
67.848202265 1795.0
67.853126121 1844.0
67.858049977 1689.0
67.862973833 1862.0
67.867897689 1794.0
67.872821545 1770.0
67.877745401 1744.0
67.882669257 1792.0
67.887593113 1757.0
67.892516969 1625.0
67.897440825 1661.0
67.902364681 1600.0
67.907288537 1642.0
67.912212393 1620.0
67.917136249 1636.0
67.922060105 1718.0
67.926983961 1664.0
67.931907817 1710.0
67.936831673 1769.0
67.941755529 1619.0
67.946679385 1886.0
67.951603241 1819.0
67.956527097 1900.0
67.961450953 1973.0
67.966374809 2020.0
67.971298665 2063.0
67.976222521 2157.0
67.981146377 2210.0
67.986070233 2218.0
67.990994089 2310.0
67.995917945 2496.0
68.000841801 2591.0
68.005765657 2771.0
68.010689513 2917.0
68.015613369 3005.0
68.020537225 3387.0
68.025461081 3479.0
68.030384937 3697.0
68.035308793 4037.0
68.040232649 4244.0
68.045156505 4586.0
68.050080361 5156.0
68.055004217 5583.0
68.059928073 5761.0
68.064851929 6725.0
68.069775785 7080.0
68.074699641 7722.0
68.079623497 9015.0
68.084547353 9600.0
68.089471209 11401.0
68.094395065 12155.0
68.099318921 15278.0
68.104242777 16019.0
68.109166633 21331.0
68.114090489 22814.0
68.119014345 32002.0
68.123938201 35195.0
68.128862058 54841.0
68.133785914 62156.0
68.138709770 105814.0
68.143633626 123033.0
68.148557482 182434.0
68.153481338 201641.0
68.158405194 225846.0
68.163329050 231960.0
68.168252906 210212.0
68.173176762 202100.0
68.178100618 148801.0
68.183024474 131004.0
68.187948330 88934.0
68.192872186 77179.0
68.197796042 54291.0
68.202719898 47568.0
68.207643754 34388.0
68.212567610 30569.0
68.217491466 22992.0
68.222415322 20476.0
68.227339178 16599.0
68.232263034 15055.0
68.237186890 12889.0
68.242110746 11495.0
68.247034602 10716.0
68.251958458 9707.0
68.256882314 9343.0
68.261806170 8615.0
68.266730026 8765.0
68.271653882 8509.0
68.276577738 8796.0
68.281501594 9163.0
68.286425450 9796.0
68.291349306 10977.0
68.296273162 11962.0
68.301197018 13482.0
68.306120874 15501.0
68.311044730 18443.0
68.315968586 23045.0
68.320892442 28414.0
68.325816298 37251.0
68.330740154 49331.0
68.335664010 64533.0
68.340587866 80620.0
68.345511722 95068.0
68.350435578 104442.0
68.355359434 108409.0
68.360283290 104763.0
68.365207146 95958.0
68.370131002 82882.0
68.375054858 68195.0
68.379978714 54025.0
68.384902570 42783.0
68.389826426 33324.0
68.394750282 26070.0
68.399674138 20855.0
68.404597994 16690.0
68.409521850 13969.0
68.414445706 11457.0
68.419369562 9795.0
68.424293418 8292.0
68.429217274 7284.0
68.434141130 6325.0
68.439064986 5533.0
68.443988842 5014.0
68.448912698 4649.0
68.453836554 4239.0
68.458760410 3932.0
68.463684266 3689.0
68.468608122 3349.0
68.473531978 3139.0
68.478455834 2974.0
68.483379690 2785.0
68.488303546 2706.0
68.493227402 2540.0
68.498151258 2374.0
68.503075114 2344.0
68.507998970 2211.0
68.512922826 2098.0
68.517846682 1974.0
68.522770538 1959.0
68.527694394 1897.0
68.532618250 1876.0
68.537542106 1726.0
68.542465962 1625.0
68.547389819 1725.0
68.552313675 1609.0
68.557237531 1492.0
68.562161387 1521.0
68.567085243 1414.0
68.572009099 1303.0
68.576932955 1368.0
68.581856811 1391.0
68.586780667 1277.0
68.591704523 1282.0
68.596628379 1191.0
68.601552235 1277.0
68.606476091 1109.0
68.611399947 1131.0
68.616323803 1055.0
68.621247659 1111.0
68.626171515 1037.0
68.631095371 1072.0
68.636019227 1031.0
68.640943083 928.0
68.645866939 893.0
68.650790795 981.0
68.655714651 904.0
68.660638507 856.0
68.665562363 890.0
68.670486219 912.0
68.675410075 867.0
68.680333931 801.0
68.685257787 813.0
68.690181643 757.0
68.695105499 768.0
68.700029355 746.0
68.704953211 699.0
68.709877067 746.0
68.714800923 734.0
68.719724779 708.0
68.724648635 731.0
68.729572491 682.0
68.734496347 649.0
68.739420203 676.0
68.744344059 659.0
68.749267915 683.0
68.754191771 600.0
68.759115627 617.0
68.764039483 631.0
68.768963339 600.0
68.773887195 543.0
68.778811051 566.0
68.783734907 562.0
68.788658763 533.0
68.793582619 566.0
68.798506475 541.0
68.803430331 590.0
68.808354187 532.0
68.813278043 501.0
68.818201899 533.0
68.823125755 526.0
68.828049611 531.0
68.832973467 534.0
68.837897323 475.0
68.842821179 457.0
68.847745035 509.0
68.852668891 452.0
68.857592747 420.0
68.862516603 481.0
68.867440459 455.0
68.872364315 436.0
68.877288171 484.0
68.882212027 398.0
68.887135883 443.0
68.892059739 414.0
68.896983595 445.0
68.901907451 441.0
68.906831307 398.0
68.911755163 425.0
68.916679019 405.0
68.921602875 407.0
68.926526731 390.0
68.931450587 399.0
68.936374443 370.0
68.941298299 407.0
68.946222155 391.0
68.951146011 359.0
68.956069867 365.0
68.960993724 373.0
68.965917580 367.0
68.970841436 349.0
68.975765292 352.0
68.980689148 370.0
68.985613004 377.0
68.990536860 350.0
68.995460716 332.0
69.000384572 336.0
69.005308428 342.0
69.010232284 378.0
69.015156140 318.0
69.020079996 361.0
69.025003852 350.0
69.029927708 327.0
69.034851564 324.0
69.039775420 351.0
69.044699276 319.0
69.049623132 289.0
69.054546988 330.0
69.059470844 325.0
69.064394700 318.0
69.069318556 291.0
69.074242412 313.0
69.079166268 306.0
69.084090124 299.0
69.089013980 289.0
69.093937836 308.0
69.098861692 298.0
69.103785548 295.0
69.108709404 272.0
69.113633260 332.0
69.118557116 284.0
69.123480972 285.0
69.128404828 267.0
69.133328684 259.0
69.138252540 274.0
69.143176396 279.0
69.148100252 292.0
69.153024108 284.0
69.157947964 211.0
69.162871820 207.0
69.167795676 261.0
69.172719532 255.0
69.177643388 271.0
69.182567244 266.0
69.187491100 214.0
69.192414956 269.0
69.197338812 204.0
69.202262668 268.0
69.207186524 258.0
69.212110380 256.0
69.217034236 206.0
69.221958092 213.0
69.226881948 199.0
69.231805804 256.0
69.236729660 219.0
69.241653516 208.0
69.246577372 213.0
69.251501228 203.0
69.256425084 265.0
69.261348940 218.0
69.266272796 182.0
69.271196652 202.0
69.276120508 219.0
69.281044364 178.0
69.285968220 205.0
69.290892076 208.0
69.295815932 208.0
69.300739788 188.0
69.305663644 192.0
69.310587500 185.0
69.315511356 194.0
69.320435212 180.0
69.325359068 161.0
69.330282924 165.0
69.335206780 168.0
69.340130636 175.0
69.345054492 186.0
69.349978348 166.0
69.354902204 189.0
69.359826060 169.0
69.364749916 174.0
69.369673772 187.0
69.374597628 159.0
69.379521485 164.0
69.384445341 194.0
69.389369197 154.0
69.394293053 184.0
69.399216909 193.0
69.404140765 165.0
69.409064621 167.0
69.413988477 166.0
69.418912333 172.0
69.423836189 163.0
69.428760045 172.0
69.433683901 157.0
69.438607757 140.0
69.443531613 158.0
69.448455469 155.0
69.453379325 149.0
69.458303181 166.0
69.463227037 158.0
69.468150893 158.0
69.473074749 174.0
69.477998605 152.0
69.482922461 151.0
69.487846317 148.0
69.492770173 143.0
69.497694029 133.0
69.502617885 152.0
69.507541741 153.0
69.512465597 141.0
69.517389453 147.0
69.522313309 151.0
69.527237165 130.0
69.532161021 135.0
69.537084877 150.0
69.542008733 138.0
69.546932589 155.0
69.551856445 149.0
69.556780301 162.0
69.561704157 153.0
69.566628013 132.0
69.571551869 135.0
69.576475725 149.0
69.581399581 126.0
69.586323437 125.0
69.591247293 127.0
69.596171149 123.0
69.601095005 132.0
69.606018861 138.0
69.610942717 134.0
69.615866573 133.0
69.620790429 137.0
69.625714285 127.0
69.630638141 140.0
69.635561997 116.0
69.640485853 126.0
69.645409709 147.0
69.650333565 118.0
69.655257421 121.0
69.660181277 147.0
69.665105133 109.0
69.670028989 107.0
69.674952845 125.0
69.679876701 134.0
69.684800557 100.0
69.689724413 123.0
69.694648269 129.0
69.699572125 117.0
69.704495981 140.0
69.709419837 104.0
69.714343693 118.0
69.719267549 117.0
69.724191405 125.0
69.729115261 126.0
69.734039117 132.0
69.738962973 113.0
69.743886829 116.0
69.748810685 121.0
69.753734541 125.0
69.758658397 114.0
69.763582253 103.0
69.768506109 104.0
69.773429965 101.0
69.778353821 97.0
69.783277677 105.0
69.788201533 101.0
69.793125389 98.0
69.798049246 113.0
69.802973102 114.0
69.807896958 121.0
69.812820814 136.0
69.817744670 132.0
69.822668526 106.0
69.827592382 113.0
69.832516238 102.0
69.837440094 115.0
69.842363950 97.0
69.847287806 100.0
69.852211662 111.0
69.857135518 130.0
69.862059374 101.0
69.866983230 89.0
69.871907086 92.0
69.876830942 102.0
69.881754798 113.0
69.886678654 110.0
69.891602510 97.0
69.896526366 96.0
69.901450222 104.0
69.906374078 97.0
69.911297934 116.0
69.916221790 79.0
69.921145646 89.0
69.926069502 103.0
69.930993358 119.0
69.935917214 108.0
69.940841070 103.0
69.945764926 108.0
69.950688782 100.0
69.955612638 109.0
69.960536494 99.0
69.965460350 85.0
69.970384206 120.0
69.975308062 102.0
69.980231918 93.0
69.985155774 87.0
69.990079630 82.0
69.995003486 105.0
69.999927342 109.0
70.004851198 98.0
70.009775054 92.0
70.014698910 101.0
70.019622766 84.0
70.024546622 96.0
70.029470478 97.0
70.034394334 76.0
70.039318190 102.0
70.044242046 100.0
70.049165902 77.0
70.054089758 90.0
70.059013614 101.0
70.063937470 104.0
70.068861326 85.0
70.073785182 106.0
70.078709038 91.0
70.083632894 92.0
70.088556750 90.0
70.093480606 97.0
70.098404462 95.0
70.103328318 100.0
70.108252174 105.0
70.113176030 86.0
70.118099886 90.0
70.123023742 107.0
70.127947598 109.0
70.132871454 103.0
70.137795310 97.0
70.142719166 99.0
70.147643022 86.0
70.152566878 115.0
70.157490734 81.0
70.162414590 97.0
70.167338446 85.0
70.172262302 85.0
70.177186158 99.0
70.182110014 95.0
70.187033870 84.0
70.191957726 84.0
70.196881582 116.0
70.201805438 81.0
70.206729294 81.0
70.211653151 90.0
70.216577007 89.0
70.221500863 79.0
70.226424719 91.0
70.231348575 109.0
70.236272431 88.0
70.241196287 101.0
70.246120143 94.0
70.251043999 92.0
70.255967855 78.0
70.260891711 107.0
70.265815567 110.0
70.270739423 85.0
70.275663279 88.0
70.280587135 97.0
70.285510991 94.0
70.290434847 102.0
70.295358703 80.0
70.300282559 89.0
70.305206415 84.0
70.310130271 80.0
70.315054127 88.0
70.319977983 103.0
70.324901839 82.0
70.329825695 86.0
70.334749551 76.0
70.339673407 84.0
70.344597263 86.0
70.349521119 95.0
70.354444975 104.0
70.359368831 80.0
70.364292687 70.0
70.369216543 70.0
70.374140399 96.0
70.379064255 83.0
70.383988111 98.0
70.388911967 78.0
70.393835823 95.0
70.398759679 82.0
70.403683535 99.0
70.408607391 98.0
70.413531247 90.0
70.418455103 93.0
70.423378959 84.0
70.428302815 95.0
70.433226671 109.0
70.438150527 94.0
70.443074383 98.0
70.447998239 81.0
70.452922095 93.0
70.457845951 78.0
70.462769807 76.0
70.467693663 91.0
70.472617519 71.0
70.477541375 100.0
70.482465231 83.0
70.487389087 91.0
70.492312943 101.0
70.497236799 94.0
70.502160655 66.0
70.507084511 71.0
70.512008367 95.0
70.516932223 103.0
70.521856079 89.0
70.526779935 77.0
70.531703791 87.0
70.536627647 82.0
70.541551503 90.0
70.546475359 73.0
70.551399215 69.0
70.556323071 81.0
70.561246927 82.0
70.566170783 93.0
70.571094639 76.0
70.576018495 81.0
70.580942351 95.0
70.585866207 86.0
70.590790063 88.0
70.595713919 84.0
70.600637775 82.0
70.605561631 78.0
70.610485487 83.0
70.615409343 72.0
70.620333199 105.0
70.625257055 60.0
70.630180912 79.0
70.635104768 89.0
70.640028624 90.0
70.644952480 81.0
70.649876336 93.0
70.654800192 79.0
70.659724048 76.0
70.664647904 90.0
70.669571760 91.0
70.674495616 82.0
70.679419472 84.0
70.684343328 89.0
70.689267184 72.0
70.694191040 71.0
70.699114896 87.0
70.704038752 89.0
70.708962608 71.0
70.713886464 89.0
70.718810320 61.0
70.723734176 69.0
70.728658032 94.0
70.733581888 84.0
70.738505744 95.0
70.743429600 83.0
70.748353456 82.0
70.753277312 88.0
70.758201168 108.0
70.763125024 84.0
70.768048880 71.0
70.772972736 103.0
70.777896592 69.0
70.782820448 75.0
70.787744304 72.0
70.792668160 90.0
70.797592016 74.0
70.802515872 75.0
70.807439728 83.0
70.812363584 73.0
70.817287440 66.0
70.822211296 90.0
70.827135152 82.0
70.832059008 83.0
70.836982864 86.0
70.841906720 71.0
70.846830576 73.0
70.851754432 67.0
70.856678288 80.0
70.861602144 83.0
70.866526000 64.0
70.871449856 91.0
70.876373712 105.0
70.881297568 82.0
70.886221424 85.0
70.891145280 77.0
70.896069136 77.0
70.900992992 73.0
70.905916848 83.0
70.910840704 83.0
70.915764560 63.0
70.920688416 72.0
70.925612272 70.0
70.930536128 72.0
70.935459984 58.0
70.940383840 58.0
70.945307696 80.0
70.950231552 69.0
70.955155408 92.0
70.960079264 82.0
70.965003120 75.0
70.969926976 80.0
70.974850832 73.0
70.979774688 86.0
70.984698544 77.0
70.989622400 79.0
70.994546256 77.0
70.999470112 69.0
71.004393968 75.0
71.009317824 73.0
71.014241680 79.0
71.019165536 77.0
71.024089392 73.0
71.029013248 87.0
71.033937104 73.0
71.038860960 67.0
71.043784816 82.0
71.048708673 61.0
71.053632529 63.0
71.058556385 76.0
71.063480241 61.0
71.068404097 70.0
71.073327953 86.0
71.078251809 82.0
71.083175665 78.0
71.088099521 90.0
71.093023377 68.0
71.097947233 66.0
71.102871089 79.0
71.107794945 83.0
71.112718801 59.0
71.117642657 68.0
71.122566513 75.0
71.127490369 68.0
71.132414225 68.0
71.137338081 72.0
71.142261937 74.0
71.147185793 80.0
71.152109649 72.0
71.157033505 61.0
71.161957361 62.0
71.166881217 91.0
71.171805073 61.0
71.176728929 67.0
71.181652785 78.0
71.186576641 63.0
71.191500497 67.0
71.196424353 74.0
71.201348209 66.0
71.206272065 86.0
71.211195921 71.0
71.216119777 59.0
71.221043633 59.0
71.225967489 70.0
71.230891345 81.0
71.235815201 76.0
71.240739057 78.0
71.245662913 73.0
71.250586769 64.0
71.255510625 83.0
71.260434481 80.0
71.265358337 83.0
71.270282193 88.0
71.275206049 71.0
71.280129905 63.0
71.285053761 79.0
71.289977617 87.0
71.294901473 75.0
71.299825329 64.0
71.304749185 53.0
71.309673041 69.0
71.314596897 83.0
71.319520753 60.0
71.324444609 85.0
71.329368465 92.0
71.334292321 80.0
71.339216177 61.0
71.344140033 87.0
71.349063889 77.0
71.353987745 79.0
71.358911601 75.0
71.363835457 65.0
71.368759313 77.0
71.373683169 89.0
71.378607025 71.0
71.383530881 68.0
71.388454737 53.0
71.393378593 63.0
71.398302449 65.0
71.403226305 86.0
71.408150161 59.0
71.413074017 79.0
71.417997873 80.0
71.422921729 70.0
71.427845585 69.0
71.432769441 68.0
71.437693297 72.0
71.442617153 79.0
71.447541009 72.0
71.452464865 77.0
71.457388721 72.0
71.462312578 78.0
71.467236434 78.0
71.472160290 76.0
71.477084146 69.0
71.482008002 68.0
71.486931858 79.0
71.491855714 73.0
71.496779570 72.0
71.501703426 66.0
71.506627282 58.0
71.511551138 66.0
71.516474994 73.0
71.521398850 52.0
71.526322706 66.0
71.531246562 71.0
71.536170418 80.0
71.541094274 68.0
71.546018130 72.0
71.550941986 71.0
71.555865842 75.0
71.560789698 66.0
71.565713554 80.0
71.570637410 62.0
71.575561266 65.0
71.580485122 70.0
71.585408978 79.0
71.590332834 83.0
71.595256690 73.0
71.600180546 66.0
71.605104402 62.0
71.610028258 68.0
71.614952114 69.0
71.619875970 55.0
71.624799826 77.0
71.629723682 56.0
71.634647538 65.0
71.639571394 91.0
71.644495250 64.0
71.649419106 88.0
71.654342962 89.0
71.659266818 70.0
71.664190674 69.0
71.669114530 72.0
