35.002061930 140.0
35.006985786 134.0
35.011909642 131.0
35.016833498 142.0
35.021757354 143.0
35.026681210 127.0
35.031605066 127.0
35.036528922 106.0
35.041452778 126.0
35.046376634 150.0
35.051300490 126.0
35.056224346 127.0
35.061148202 137.0
35.066072058 151.0
35.070995914 134.0
35.075919770 140.0
35.080843626 130.0
35.085767482 111.0
35.090691338 134.0
35.095615194 129.0
35.100539050 130.0
35.105462906 144.0
35.110386762 120.0
35.115310618 127.0
35.120234474 127.0
35.125158330 122.0
35.130082186 134.0
35.135006042 121.0
35.139929898 128.0
35.144853754 144.0
35.149777610 139.0
35.154701466 120.0
35.159625322 122.0
35.164549178 142.0
35.169473034 114.0
35.174396890 126.0
35.179320746 135.0
35.184244602 139.0
35.189168458 156.0
35.194092314 125.0
35.199016170 132.0
35.203940026 129.0
35.208863882 139.0
35.213787738 126.0
35.218711594 128.0
35.223635450 146.0
35.228559306 136.0
35.233483162 141.0
35.238407018 117.0
35.243330874 128.0
35.248254730 137.0
35.253178587 120.0
35.258102443 129.0
35.263026299 141.0
35.267950155 123.0
35.272874011 138.0
35.277797867 149.0
35.282721723 144.0
35.287645579 131.0
35.292569435 149.0
35.297493291 122.0
35.302417147 123.0
35.307341003 127.0
35.312264859 149.0
35.317188715 122.0
35.322112571 144.0
35.327036427 137.0
35.331960283 145.0
35.336884139 146.0
35.341807995 149.0
35.346731851 122.0
35.351655707 108.0
35.356579563 115.0
35.361503419 133.0
35.366427275 131.0
35.371351131 133.0
35.376274987 144.0
35.381198843 133.0
35.386122699 123.0
35.391046555 111.0
35.395970411 153.0
35.400894267 125.0
35.405818123 133.0
35.410741979 142.0
35.415665835 139.0
35.420589691 146.0
35.425513547 154.0
35.430437403 139.0
35.435361259 143.0
35.440285115 159.0
35.445208971 132.0
35.450132827 143.0
35.455056683 151.0
35.459980539 150.0
35.464904395 142.0
35.469828251 138.0
35.474752107 142.0
35.479675963 156.0
35.484599819 156.0
35.489523675 119.0
35.494447531 134.0
35.499371387 141.0
35.504295243 122.0
35.509219099 128.0
35.514142955 141.0
35.519066811 137.0
35.523990667 156.0
35.528914523 115.0
35.533838379 149.0
35.538762235 146.0
35.543686091 168.0
35.548609947 156.0
35.553533803 140.0
35.558457659 135.0
35.563381515 139.0
35.568305371 167.0
35.573229227 156.0
35.578153083 143.0
35.583076939 140.0
35.588000795 164.0
35.592924651 130.0
35.597848507 171.0
35.602772363 193.0
35.607696219 138.0
35.612620075 158.0
35.617543931 142.0
35.622467787 151.0
35.627391643 139.0
35.632315499 143.0
35.637239355 116.0
35.642163211 152.0
35.647087067 154.0
35.652010923 158.0
35.656934779 134.0
35.661858635 144.0
35.666782491 145.0
35.671706347 173.0
35.676630203 123.0
35.681554059 157.0
35.686477915 144.0
35.691401771 127.0
35.696325627 126.0
35.701249483 112.0
35.706173339 141.0
35.711097195 112.0
35.716021051 151.0
35.720944907 130.0
35.725868763 143.0
35.730792619 130.0
35.735716475 138.0
35.740640331 144.0
35.745564187 151.0
35.750488043 150.0
35.755411900 155.0
35.760335756 118.0
35.765259612 125.0
35.770183468 144.0
35.775107324 136.0
35.780031180 136.0
35.784955036 122.0
35.789878892 123.0
35.794802748 125.0
35.799726604 126.0
35.804650460 143.0
35.809574316 128.0
35.814498172 139.0
35.819422028 142.0
35.824345884 142.0
35.829269740 127.0
35.834193596 128.0
35.839117452 131.0
35.844041308 131.0
35.848965164 122.0
35.853889020 137.0
35.858812876 144.0
35.863736732 132.0
35.868660588 150.0
35.873584444 133.0
35.878508300 142.0
35.883432156 120.0
35.888356012 127.0
35.893279868 148.0
35.898203724 135.0
35.903127580 122.0
35.908051436 125.0
35.912975292 135.0
35.917899148 136.0
35.922823004 137.0
35.927746860 127.0
35.932670716 119.0
35.937594572 124.0
35.942518428 99.0
35.947442284 143.0
35.952366140 118.0
35.957289996 134.0
35.962213852 143.0
35.967137708 115.0
35.972061564 123.0
35.976985420 131.0
35.981909276 118.0
35.986833132 138.0
35.991756988 149.0
35.996680844 125.0
36.001604700 119.0
36.006528556 120.0
36.011452412 110.0
36.016376268 129.0
36.021300124 132.0
36.026223980 136.0
36.031147836 140.0
36.036071692 136.0
36.040995548 145.0
36.045919404 147.0
36.050843260 127.0
36.055767116 141.0
36.060690972 129.0
36.065614828 133.0
36.070538684 130.0
36.075462540 135.0
36.080386396 129.0
36.085310252 120.0
36.090234108 126.0
36.095157964 123.0
36.100081820 133.0
36.105005676 112.0
36.109929532 151.0
36.114853388 112.0
36.119777244 131.0
36.124701100 146.0
36.129624956 125.0
36.134548812 128.0
36.139472668 140.0
36.144396524 126.0
36.149320380 128.0
36.154244236 115.0
36.159168092 147.0
36.164091948 128.0
36.169015804 119.0
36.173939660 135.0
36.178863516 161.0
36.183787372 148.0
36.188711228 125.0
36.193635084 146.0
36.198558940 115.0
36.203482796 119.0
36.208406652 126.0
36.213330508 152.0
36.218254364 137.0
36.223178220 149.0
36.228102076 140.0
36.233025932 126.0
36.237949788 146.0
36.242873644 125.0
36.247797500 133.0
36.252721357 128.0
36.257645213 137.0
36.262569069 138.0
36.267492925 127.0
36.272416781 139.0
36.277340637 143.0
36.282264493 136.0
36.287188349 127.0
36.292112205 156.0
36.297036061 135.0
36.301959917 106.0
36.306883773 142.0
36.311807629 138.0
36.316731485 136.0
36.321655341 133.0
36.326579197 138.0
36.331503053 130.0
36.336426909 112.0
36.341350765 112.0
36.346274621 130.0
36.351198477 105.0
36.356122333 118.0
36.361046189 140.0
36.365970045 151.0
36.370893901 141.0
36.375817757 138.0
36.380741613 133.0
36.385665469 126.0
36.390589325 134.0
36.395513181 124.0
36.400437037 114.0
36.405360893 119.0
36.410284749 130.0
36.415208605 140.0
36.420132461 126.0
36.425056317 129.0
36.429980173 129.0
36.434904029 139.0
36.439827885 126.0
36.444751741 122.0
36.449675597 131.0
36.454599453 128.0
36.459523309 158.0
36.464447165 130.0
36.469371021 120.0
36.474294877 126.0
36.479218733 131.0
36.484142589 132.0
36.489066445 120.0
36.493990301 148.0
36.498914157 141.0
36.503838013 133.0
36.508761869 120.0
36.513685725 136.0
36.518609581 117.0
36.523533437 141.0
36.528457293 155.0
36.533381149 118.0
36.538305005 147.0
36.543228861 138.0
36.548152717 135.0
36.553076573 110.0
36.558000429 123.0
36.562924285 127.0
36.567848141 109.0
36.572771997 117.0
36.577695853 128.0
36.582619709 138.0
36.587543565 124.0
36.592467421 145.0
36.597391277 128.0
36.602315133 112.0
36.607238989 111.0
36.612162845 123.0
36.617086701 129.0
36.622010557 127.0
36.626934413 114.0
36.631858269 134.0
36.636782125 135.0
36.641705981 135.0
36.646629837 152.0
36.651553693 133.0
36.656477549 117.0
36.661401405 111.0
36.666325261 118.0
36.671249117 124.0
36.676172973 112.0
36.681096829 129.0
36.686020685 117.0
36.690944541 132.0
36.695868397 138.0
36.700792253 130.0
36.705716109 139.0
36.710639965 131.0
36.715563821 149.0
36.720487677 139.0
36.725411533 129.0
36.730335389 117.0
36.735259245 137.0
36.740183101 125.0
36.745106957 128.0
36.750030813 128.0
36.754954670 125.0
36.759878526 130.0
36.764802382 126.0
36.769726238 134.0
36.774650094 96.0
36.779573950 122.0
36.784497806 150.0
36.789421662 148.0
36.794345518 122.0
36.799269374 139.0
36.804193230 120.0
36.809117086 153.0
36.814040942 154.0
36.818964798 143.0
36.823888654 123.0
36.828812510 129.0
36.833736366 112.0
36.838660222 121.0
36.843584078 134.0
36.848507934 122.0
36.853431790 134.0
36.858355646 114.0
36.863279502 140.0
36.868203358 121.0
36.873127214 129.0
36.878051070 140.0
36.882974926 119.0
36.887898782 141.0
36.892822638 116.0
36.897746494 139.0
36.902670350 114.0
36.907594206 168.0
36.912518062 134.0
36.917441918 124.0
36.922365774 136.0
36.927289630 122.0
36.932213486 138.0
36.937137342 124.0
36.942061198 138.0
36.946985054 110.0
36.951908910 128.0
36.956832766 127.0
36.961756622 117.0
36.966680478 135.0
36.971604334 121.0
36.976528190 143.0
36.981452046 124.0
36.986375902 138.0
36.991299758 133.0
36.996223614 133.0
37.001147470 135.0
37.006071326 135.0
37.010995182 139.0
37.015919038 115.0
37.020842894 133.0
37.025766750 129.0
37.030690606 125.0
37.035614462 135.0
37.040538318 140.0
37.045462174 127.0
37.050386030 129.0
37.055309886 134.0
37.060233742 134.0
37.065157598 131.0
37.070081454 134.0
37.075005310 125.0
37.079929166 125.0
37.084853022 130.0
37.089776878 137.0
37.094700734 123.0
37.099624590 120.0
37.104548446 149.0
37.109472302 127.0
37.114396158 118.0
37.119320014 149.0
37.124243870 127.0
37.129167726 133.0
37.134091582 138.0
37.139015438 136.0
37.143939294 137.0
37.148863150 141.0
37.153787006 137.0
37.158710862 141.0
37.163634718 131.0
37.168558574 118.0
37.173482430 128.0
37.178406286 156.0
37.183330142 161.0
37.188253998 126.0
37.193177854 152.0
37.198101710 135.0
37.203025566 132.0
37.207949422 140.0
37.212873278 148.0
37.217797134 154.0
37.222720990 143.0
37.227644846 112.0
37.232568702 121.0
37.237492558 147.0
37.242416414 120.0
37.247340270 136.0
37.252264127 134.0
37.257187983 133.0
37.262111839 134.0
37.267035695 140.0
37.271959551 160.0
37.276883407 146.0
37.281807263 132.0
37.286731119 132.0
37.291654975 144.0
37.296578831 136.0
37.301502687 129.0
37.306426543 137.0
37.311350399 142.0
37.316274255 121.0
37.321198111 140.0
37.326121967 138.0
37.331045823 143.0
37.335969679 135.0
37.340893535 123.0
37.345817391 139.0
37.350741247 118.0
37.355665103 141.0
37.360588959 163.0
37.365512815 164.0
37.370436671 134.0
37.375360527 136.0
37.380284383 145.0
37.385208239 153.0
37.390132095 158.0
37.395055951 163.0
37.399979807 182.0
37.404903663 187.0
37.409827519 197.0
37.414751375 224.0
37.419675231 282.0
37.424599087 294.0
37.429522943 324.0
37.434446799 355.0
37.439370655 377.0
37.444294511 341.0
37.449218367 348.0
37.454142223 342.0
37.459066079 347.0
37.463989935 325.0
37.468913791 270.0
37.473837647 272.0
37.478761503 224.0
37.483685359 186.0
37.488609215 200.0
37.493533071 199.0
37.498456927 183.0
37.503380783 150.0
37.508304639 165.0
37.513228495 164.0
37.518152351 152.0
37.523076207 130.0
37.528000063 155.0
37.532923919 140.0
37.537847775 158.0
37.542771631 138.0
37.547695487 151.0
37.552619343 150.0
37.557543199 145.0
37.562467055 149.0
37.567390911 144.0
37.572314767 141.0
37.577238623 119.0
37.582162479 119.0
37.587086335 138.0
37.592010191 126.0
37.596934047 128.0
37.601857903 126.0
37.606781759 158.0
37.611705615 150.0
37.616629471 126.0
37.621553327 129.0
37.626477183 128.0
37.631401039 137.0
37.636324895 135.0
37.641248751 132.0
37.646172607 123.0
37.651096463 133.0
37.656020319 137.0
37.660944175 146.0
37.665868031 131.0
37.670791887 126.0
37.675715743 144.0
37.680639599 133.0
37.685563455 137.0
37.690487311 139.0
37.695411167 143.0
37.700335023 154.0
37.705258879 141.0
37.710182735 131.0
37.715106591 154.0
37.720030447 129.0
37.724954303 129.0
37.729878159 134.0
37.734802015 157.0
37.739725871 127.0
37.744649727 125.0
37.749573583 147.0
37.754497440 141.0
37.759421296 152.0
37.764345152 129.0
37.769269008 157.0
37.774192864 124.0
37.779116720 141.0
37.784040576 125.0
37.788964432 133.0
37.793888288 134.0
37.798812144 148.0
37.803736000 147.0
37.808659856 122.0
37.813583712 128.0
37.818507568 129.0
37.823431424 137.0
37.828355280 133.0
37.833279136 135.0
37.838202992 116.0
37.843126848 151.0
37.848050704 153.0
37.852974560 124.0
37.857898416 130.0
37.862822272 149.0
37.867746128 138.0
37.872669984 124.0
37.877593840 141.0
37.882517696 167.0
37.887441552 123.0
37.892365408 140.0
37.897289264 129.0
37.902213120 128.0
37.907136976 152.0
37.912060832 134.0
37.916984688 152.0
37.921908544 125.0
37.926832400 132.0
37.931756256 138.0
37.936680112 137.0
37.941603968 148.0
37.946527824 149.0
37.951451680 145.0
37.956375536 157.0
37.961299392 121.0
37.966223248 146.0
37.971147104 148.0
37.976070960 135.0
37.980994816 142.0
37.985918672 128.0
37.990842528 132.0
37.995766384 144.0
38.000690240 142.0
38.005614096 163.0
38.010537952 149.0
38.015461808 131.0
38.020385664 162.0
38.025309520 143.0
38.030233376 162.0
38.035157232 140.0
38.040081088 138.0
38.045004944 153.0
38.049928800 146.0
38.054852656 136.0
38.059776512 150.0
38.064700368 146.0
38.069624224 128.0
38.074548080 153.0
38.079471936 147.0
38.084395792 147.0
38.089319648 150.0
38.094243504 160.0
38.099167360 150.0
38.104091216 149.0
38.109015072 138.0
38.113938928 139.0
38.118862784 118.0
38.123786640 146.0
38.128710496 131.0
38.133634352 123.0
38.138558208 141.0
38.143482064 137.0
38.148405920 142.0
38.153329776 155.0
38.158253632 132.0
38.163177488 137.0
38.168101344 157.0
38.173025200 167.0
38.177949056 155.0
38.182872912 156.0
38.187796768 132.0
38.192720624 120.0
38.197644480 165.0
38.202568336 162.0
38.207492192 164.0
38.212416048 138.0
38.217339904 129.0
38.222263760 144.0
38.227187616 161.0
38.232111472 147.0
38.237035328 150.0
38.241959184 125.0
38.246883040 158.0
38.251806897 157.0
38.256730753 161.0
38.261654609 160.0
38.266578465 144.0
38.271502321 146.0
38.276426177 164.0
38.281350033 161.0
38.286273889 164.0
38.291197745 167.0
38.296121601 171.0
38.301045457 169.0
38.305969313 137.0
38.310893169 158.0
38.315817025 155.0
38.320740881 170.0
38.325664737 149.0
38.330588593 176.0
38.335512449 176.0
38.340436305 176.0
38.345360161 145.0
38.350284017 158.0
38.355207873 182.0
38.360131729 183.0
38.365055585 158.0
38.369979441 157.0
38.374903297 169.0
38.379827153 174.0
38.384751009 169.0
38.389674865 156.0
38.394598721 163.0
38.399522577 183.0
38.404446433 163.0
38.409370289 183.0
38.414294145 191.0
38.419218001 180.0
38.424141857 187.0
38.429065713 179.0
38.433989569 175.0
38.438913425 179.0
38.443837281 157.0
38.448761137 192.0
38.453684993 191.0
38.458608849 169.0
38.463532705 170.0
38.468456561 190.0
38.473380417 183.0
38.478304273 167.0
38.483228129 195.0
38.488151985 192.0
38.493075841 180.0
38.497999697 183.0
38.502923553 174.0
38.507847409 177.0
38.512771265 188.0
38.517695121 175.0
38.522618977 187.0
38.527542833 167.0
38.532466689 182.0
38.537390545 186.0
38.542314401 202.0
38.547238257 198.0
38.552162113 184.0
38.557085969 173.0
38.562009825 206.0
38.566933681 206.0
38.571857537 192.0
38.576781393 182.0
38.581705249 206.0
38.586629105 197.0
38.591552961 184.0
38.596476817 205.0
38.601400673 195.0
38.606324529 206.0
38.611248385 187.0
38.616172241 212.0
38.621096097 197.0
38.626019953 214.0
38.630943809 187.0
38.635867665 247.0
38.640791521 225.0
38.645715377 196.0
38.650639233 221.0
38.655563089 213.0
38.660486945 234.0
38.665410801 222.0
38.670334657 209.0
38.675258513 212.0
38.680182369 238.0
38.685106225 242.0
38.690030081 222.0
38.694953937 224.0
38.699877793 258.0
38.704801649 267.0
38.709725505 239.0
38.714649361 242.0
38.719573217 240.0
38.724497073 226.0
38.729420929 267.0
38.734344785 196.0
38.739268641 266.0
38.744192497 255.0
38.749116353 263.0
38.754040210 282.0
38.758964066 239.0
38.763887922 283.0
38.768811778 241.0
38.773735634 269.0
38.778659490 257.0
38.783583346 290.0
38.788507202 256.0
38.793431058 284.0
38.798354914 293.0
38.803278770 277.0
38.808202626 289.0
38.813126482 285.0
38.818050338 279.0
38.822974194 289.0
38.827898050 284.0
38.832821906 333.0
38.837745762 307.0
38.842669618 269.0
38.847593474 299.0
38.852517330 310.0
38.857441186 298.0
38.862365042 297.0
38.867288898 345.0
38.872212754 330.0
38.877136610 357.0
38.882060466 353.0
38.886984322 318.0
38.891908178 346.0
38.896832034 324.0
38.901755890 337.0
38.906679746 340.0
38.911603602 349.0
38.916527458 313.0
38.921451314 348.0
38.926375170 312.0
38.931299026 358.0
38.936222882 343.0
38.941146738 346.0
38.946070594 353.0
38.950994450 355.0
38.955918306 373.0
38.960842162 371.0
38.965766018 406.0
38.970689874 435.0
38.975613730 385.0
38.980537586 445.0
38.985461442 429.0
38.990385298 416.0
38.995309154 409.0
39.000233010 395.0
39.005156866 406.0
39.010080722 487.0
39.015004578 433.0
39.019928434 441.0
39.024852290 459.0
39.029776146 467.0
39.034700002 509.0
39.039623858 453.0
39.044547714 462.0
39.049471570 491.0
39.054395426 496.0
39.059319282 510.0
39.064243138 499.0
39.069166994 539.0
39.074090850 575.0
39.079014706 559.0
39.083938562 523.0
39.088862418 548.0
39.093786274 548.0
39.098710130 561.0
39.103633986 591.0
39.108557842 604.0
39.113481698 595.0
39.118405554 616.0
39.123329410 616.0
39.128253266 657.0
39.133177122 685.0
39.138100978 633.0
39.143024834 691.0
39.147948690 725.0
39.152872546 735.0
39.157796402 684.0
39.162720258 754.0
39.167644114 778.0
39.172567970 800.0
39.177491826 805.0
39.182415682 753.0
39.187339538 849.0
39.192263394 843.0
39.197187250 859.0
39.202111106 842.0
39.207034962 919.0
39.211958818 900.0
39.216882674 930.0
39.221806530 975.0
39.226730386 923.0
39.231654242 1017.0
39.236578098 1008.0
39.241501954 1010.0
39.246425810 1111.0
39.251349667 1104.0
39.256273523 1152.0
39.261197379 1193.0
39.266121235 1198.0
39.271045091 1262.0
39.275968947 1302.0
39.280892803 1292.0
39.285816659 1394.0
39.290740515 1403.0
39.295664371 1401.0
39.300588227 1501.0
39.305512083 1508.0
39.310435939 1589.0
39.315359795 1705.0
39.320283651 1635.0
39.325207507 1717.0
39.330131363 1779.0
39.335055219 1777.0
39.339979075 1846.0
39.344902931 1987.0
39.349826787 1922.0
39.354750643 1975.0
39.359674499 2014.0
39.364598355 2218.0
39.369522211 2196.0
39.374446067 2342.0
39.379369923 2422.0
39.384293779 2428.0
39.389217635 2480.0
39.394141491 2642.0
39.399065347 2716.0
39.403989203 2779.0
39.408913059 2923.0
39.413836915 2968.0
39.418760771 2971.0
39.423684627 3104.0
39.428608483 3264.0
39.433532339 3405.0
39.438456195 3504.0
39.443380051 3611.0
39.448303907 3755.0
39.453227763 3835.0
39.458151619 3958.0
39.463075475 4021.0
39.467999331 4165.0
39.472923187 4309.0
39.477847043 4369.0
39.482770899 4466.0
39.487694755 4555.0
39.492618611 4781.0
39.497542467 4841.0
39.502466323 4917.0
39.507390179 5039.0
39.512314035 5152.0
39.517237891 5140.0
39.522161747 5260.0
39.527085603 5370.0
39.532009459 5219.0
39.536933315 5190.0
39.541857171 5421.0
39.546781027 5443.0
39.551704883 5458.0
39.556628739 5248.0
39.561552595 5372.0
39.566476451 5353.0
39.571400307 5230.0
39.576324163 5306.0
39.581248019 5158.0
39.586171875 5109.0
39.591095731 5180.0
39.596019587 5018.0
39.600943443 4795.0
39.605867299 4880.0
39.610791155 4655.0
39.615715011 4607.0
39.620638867 4513.0
39.625562723 4530.0
39.630486579 4393.0
39.635410435 4137.0
39.640334291 4180.0
39.645258147 4066.0
39.650182003 3880.0
39.655105859 3695.0
39.660029715 3673.0
39.664953571 3616.0
39.669877427 3520.0
39.674801283 3296.0
39.679725139 3082.0
39.684648995 2987.0
39.689572851 3011.0
39.694496707 2811.0
39.699420563 2740.0
39.704344419 2636.0
39.709268275 2462.0
39.714192131 2331.0
39.719115987 2190.0
39.724039843 2229.0
39.728963699 2048.0
39.733887555 1993.0
39.738811411 1940.0
39.743735267 1838.0
39.748659123 1694.0
39.753582980 1650.0
39.758506836 1570.0
39.763430692 1436.0
39.768354548 1452.0
39.773278404 1341.0
39.778202260 1277.0
39.783126116 1155.0
39.788049972 1173.0
39.792973828 1168.0
39.797897684 1034.0
39.802821540 1013.0
39.807745396 1008.0
39.812669252 923.0
39.817593108 953.0
39.822516964 828.0
39.827440820 878.0
39.832364676 800.0
39.837288532 778.0
39.842212388 742.0
39.847136244 696.0
39.852060100 688.0
39.856983956 695.0
39.861907812 666.0
39.866831668 643.0
39.871755524 559.0
39.876679380 552.0
39.881603236 559.0
39.886527092 505.0
39.891450948 478.0
39.896374804 547.0
39.901298660 466.0
39.906222516 491.0
39.911146372 449.0
39.916070228 478.0
39.920994084 416.0
39.925917940 436.0
39.930841796 432.0
39.935765652 461.0
39.940689508 422.0
39.945613364 395.0
39.950537220 367.0
39.955461076 374.0
39.960384932 379.0
39.965308788 374.0
39.970232644 365.0
39.975156500 326.0
39.980080356 347.0
39.985004212 352.0
39.989928068 344.0
39.994851924 340.0
39.999775780 295.0
40.004699636 301.0
40.009623492 262.0
40.014547348 283.0
40.019471204 260.0
40.024395060 284.0
40.029318916 318.0
40.034242772 284.0
40.039166628 280.0
40.044090484 283.0
40.049014340 266.0
40.053938196 247.0
40.058862052 237.0
40.063785908 256.0
40.068709764 222.0
40.073633620 241.0
40.078557476 258.0
40.083481332 257.0
40.088405188 244.0
40.093329044 211.0
40.098252900 246.0
40.103176756 267.0
40.108100612 229.0
40.113024468 231.0
40.117948324 244.0
40.122872180 235.0
40.127796036 224.0
40.132719892 213.0
40.137643748 188.0
40.142567604 220.0
40.147491460 229.0
40.152415316 227.0
40.157339172 202.0
40.162263028 210.0
40.167186884 219.0
40.172110740 199.0
40.177034596 205.0
40.181958452 186.0
40.186882308 213.0
40.191806164 203.0
40.196730020 190.0
40.201653876 197.0
40.206577732 211.0
40.211501588 175.0
40.216425444 218.0
40.221349300 183.0
40.226273156 192.0
40.231197012 178.0
40.236120868 186.0
40.241044724 185.0
40.245968580 193.0
40.250892437 215.0
40.255816293 196.0
40.260740149 176.0
40.265664005 211.0
40.270587861 164.0
40.275511717 167.0
40.280435573 196.0
40.285359429 176.0
40.290283285 191.0
40.295207141 161.0
40.300130997 167.0
40.305054853 180.0
40.309978709 174.0
40.314902565 165.0
40.319826421 151.0
40.324750277 179.0
40.329674133 189.0
40.334597989 175.0
40.339521845 151.0
40.344445701 174.0
40.349369557 178.0
40.354293413 147.0
40.359217269 147.0
40.364141125 192.0
40.369064981 170.0
40.373988837 144.0
40.378912693 175.0
40.383836549 182.0
40.388760405 166.0
40.393684261 161.0
40.398608117 180.0
40.403531973 171.0
40.408455829 182.0
40.413379685 192.0
40.418303541 142.0
40.423227397 157.0
40.428151253 200.0
40.433075109 176.0
40.437998965 167.0
40.442922821 168.0
40.447846677 164.0
40.452770533 191.0
40.457694389 158.0
40.462618245 211.0
40.467542101 163.0
40.472465957 163.0
40.477389813 164.0
40.482313669 173.0
40.487237525 203.0
40.492161381 159.0
40.497085237 151.0
40.502009093 187.0
40.506932949 173.0
40.511856805 182.0
40.516780661 163.0
40.521704517 173.0
40.526628373 161.0
40.531552229 158.0
40.536476085 179.0
40.541399941 185.0
40.546323797 184.0
40.551247653 160.0
40.556171509 159.0
40.561095365 169.0
40.566019221 171.0
40.570943077 199.0
40.575866933 184.0
40.580790789 144.0
40.585714645 188.0
40.590638501 173.0
40.595562357 166.0
40.600486213 190.0
40.605410069 162.0
40.610333925 176.0
40.615257781 193.0
40.620181637 169.0
40.625105493 172.0
40.630029349 160.0
40.634953205 185.0
40.639877061 176.0
40.644800917 194.0
40.649724773 177.0
40.654648629 161.0
40.659572485 180.0
40.664496341 197.0
40.669420197 189.0
40.674344053 193.0
40.679267909 179.0
40.684191765 173.0
40.689115621 189.0
40.694039477 210.0
40.698963333 174.0
40.703887189 189.0
40.708811045 171.0
40.713734901 192.0
40.718658757 182.0
40.723582613 173.0
40.728506469 172.0
40.733430325 178.0
40.738354181 161.0
40.743278037 202.0
40.748201893 188.0
40.753125750 172.0
40.758049606 180.0
40.762973462 174.0
40.767897318 189.0
40.772821174 182.0
40.777745030 218.0
40.782668886 182.0
40.787592742 187.0
40.792516598 176.0
40.797440454 177.0
40.802364310 191.0
40.807288166 195.0
40.812212022 211.0
40.817135878 186.0
40.822059734 203.0
40.826983590 199.0
40.831907446 203.0
40.836831302 192.0
40.841755158 208.0
40.846679014 195.0
40.851602870 200.0
40.856526726 189.0
40.861450582 172.0
40.866374438 199.0
40.871298294 192.0
40.876222150 203.0
40.881146006 219.0
40.886069862 198.0
40.890993718 199.0
40.895917574 196.0
40.900841430 188.0
40.905765286 182.0
40.910689142 216.0
40.915612998 184.0
40.920536854 205.0
40.925460710 204.0
40.930384566 196.0
40.935308422 209.0
40.940232278 217.0
40.945156134 205.0
40.950079990 188.0
40.955003846 212.0
40.959927702 182.0
40.964851558 224.0
40.969775414 222.0
40.974699270 178.0
40.979623126 197.0
40.984546982 218.0
40.989470838 232.0
40.994394694 229.0
40.999318550 202.0
41.004242406 216.0
41.009166262 208.0
41.014090118 218.0
41.019013974 204.0
41.023937830 228.0
41.028861686 226.0
41.033785542 225.0
41.038709398 230.0
41.043633254 196.0
41.048557110 226.0
41.053480966 225.0
41.058404822 221.0
41.063328678 259.0
41.068252534 218.0
41.073176390 267.0
41.078100246 216.0
41.083024102 224.0
41.087947958 240.0
41.092871814 224.0
41.097795670 267.0
41.102719526 216.0
41.107643382 224.0
41.112567238 225.0
41.117491094 214.0
41.122414950 206.0
41.127338806 232.0
41.132262662 260.0
41.137186518 255.0
41.142110374 276.0
41.147034230 256.0
41.151958086 282.0
41.156881942 225.0
41.161805798 227.0
41.166729654 279.0
41.171653510 210.0
41.176577366 279.0
41.181501222 231.0
41.186425078 275.0
41.191348934 270.0
41.196272790 312.0
41.201196646 291.0
41.206120502 310.0
41.211044358 280.0
41.215968214 259.0
41.220892070 296.0
41.225815926 311.0
41.230739782 317.0
41.235663638 294.0
41.240587494 313.0
41.245511350 302.0
41.250435207 330.0
41.255359063 329.0
41.260282919 314.0
41.265206775 303.0
41.270130631 332.0
41.275054487 338.0
41.279978343 342.0
41.284902199 334.0
41.289826055 327.0
41.294749911 287.0
41.299673767 348.0
41.304597623 342.0
41.309521479 364.0
41.314445335 334.0
41.319369191 362.0
41.324293047 366.0
41.329216903 377.0
41.334140759 385.0
41.339064615 373.0
41.343988471 382.0
41.348912327 417.0
41.353836183 406.0
41.358760039 455.0
41.363683895 473.0
41.368607751 450.0
41.373531607 486.0
41.378455463 570.0
41.383379319 574.0
41.388303175 646.0
41.393227031 631.0
41.398150887 729.0
41.403074743 815.0
41.407998599 869.0
41.412922455 850.0
41.417846311 922.0
41.422770167 945.0
41.427694023 978.0
41.432617879 975.0
41.437541735 1027.0
41.442465591 1061.0
41.447389447 1022.0
41.452313303 997.0
41.457237159 1016.0
41.462161015 1004.0
41.467084871 1102.0
41.472008727 992.0
41.476932583 1038.0
41.481856439 1063.0
41.486780295 1084.0
41.491704151 1021.0
41.496628007 1072.0
41.501551863 1152.0
41.506475719 1124.0
41.511399575 1215.0
41.516323431 1331.0
41.521247287 1478.0
41.526171143 1534.0
41.531094999 1804.0
41.536018855 1867.0
41.540942711 2211.0
41.545866567 2518.0
41.550790423 2990.0
41.555714279 3673.0
41.560638135 4246.0
41.565561991 5200.0
41.570485847 6615.0
41.575409703 8660.0
41.580333559 12656.0
41.585257415 19196.0
41.590181271 29718.0
41.595105127 41911.0
41.600028983 51909.0
41.604952839 58694.0
41.609876695 63350.0
41.614800551 65839.0
41.619724407 67368.0
41.624648263 67811.0
41.629572119 67061.0
41.634495975 65188.0
41.639419831 60698.0
41.644343687 52651.0
41.649267543 40861.0
41.654191399 28990.0
41.659115255 19656.0
41.664039111 13729.0
41.668962967 10282.0
41.673886823 8540.0
41.678810679 7866.0
41.683734535 7974.0
41.688658391 9369.0
41.693582247 12079.0
41.698506103 16518.0
41.703429959 21772.0
41.708353815 26275.0
41.713277671 29640.0
41.718201527 31953.0
41.723125383 32909.0
41.728049239 33533.0
41.732973095 33331.0
41.737896951 33056.0
41.742820807 31509.0
41.747744663 28848.0
41.752668520 24818.0
41.757592376 19705.0
41.762516232 14318.0
41.767440088 10131.0
41.772363944 7074.0
41.777287800 4984.0
41.782211656 3831.0
41.787135512 2944.0
41.792059368 2436.0
41.796983224 2049.0
41.801907080 1778.0
41.806830936 1553.0
41.811754792 1392.0
41.816678648 1302.0
41.821602504 1210.0
41.826526360 1063.0
41.831450216 992.0
41.836374072 958.0
41.841297928 871.0
41.846221784 837.0
41.851145640 784.0
41.856069496 772.0
41.860993352 737.0
41.865917208 725.0
41.870841064 715.0
41.875764920 657.0
41.880688776 657.0
41.885612632 636.0
41.890536488 566.0
41.895460344 533.0
41.900384200 542.0
41.905308056 519.0
41.910231912 550.0
41.915155768 479.0
41.920079624 489.0
41.925003480 463.0
41.929927336 479.0
41.934851192 474.0
41.939775048 425.0
41.944698904 486.0
41.949622760 446.0
41.954546616 422.0
41.959470472 407.0
41.964394328 384.0
41.969318184 415.0
41.974242040 402.0
41.979165896 396.0
41.984089752 385.0
41.989013608 365.0
41.993937464 369.0
41.998861320 344.0
42.003785176 382.0
42.008709032 338.0
42.013632888 341.0
42.018556744 330.0
42.023480600 334.0
42.028404456 348.0
42.033328312 326.0
42.038252168 292.0
42.043176024 285.0
42.048099880 305.0
42.053023736 321.0
42.057947592 292.0
42.062871448 290.0
42.067795304 292.0
42.072719160 295.0
42.077643016 296.0
42.082566872 291.0
42.087490728 287.0
42.092414584 283.0
42.097338440 285.0
42.102262296 289.0
42.107186152 265.0
42.112110008 277.0
42.117033864 276.0
42.121957720 219.0
42.126881576 277.0
42.131805432 291.0
42.136729288 230.0
42.141653144 232.0
42.146577000 235.0
42.151500856 260.0
42.156424712 268.0
42.161348568 272.0
42.166272424 274.0
42.171196280 226.0
42.176120136 228.0
42.181043992 199.0
42.185967848 205.0
42.190891704 221.0
42.195815560 223.0
42.200739416 204.0
42.205663272 223.0
42.210587128 221.0
42.215510984 206.0
42.220434840 194.0
42.225358696 208.0
42.230282552 210.0
42.235206408 208.0
42.240130264 214.0
42.245054120 180.0
42.249977977 219.0
42.254901833 175.0
42.259825689 180.0
42.264749545 190.0
42.269673401 176.0
42.274597257 197.0
42.279521113 187.0
42.284444969 170.0
42.289368825 183.0
42.294292681 198.0
42.299216537 150.0
42.304140393 168.0
42.309064249 191.0
42.313988105 189.0
42.318911961 179.0
42.323835817 176.0
42.328759673 196.0
42.333683529 172.0
42.338607385 180.0
42.343531241 158.0
42.348455097 160.0
42.353378953 177.0
42.358302809 173.0
42.363226665 178.0
42.368150521 178.0
42.373074377 175.0
42.377998233 190.0
42.382922089 175.0
42.387845945 165.0
42.392769801 163.0
42.397693657 157.0
42.402617513 148.0
42.407541369 174.0
42.412465225 158.0
42.417389081 149.0
42.422312937 150.0
42.427236793 193.0
42.432160649 166.0
42.437084505 163.0
42.442008361 156.0
42.446932217 136.0
42.451856073 155.0
42.456779929 161.0
42.461703785 151.0
42.466627641 165.0
42.471551497 167.0
42.476475353 137.0
42.481399209 168.0
42.486323065 160.0
42.491246921 160.0
42.496170777 174.0
42.501094633 148.0
42.506018489 172.0
42.510942345 153.0
42.515866201 158.0
42.520790057 173.0
42.525713913 160.0
42.530637769 169.0
42.535561625 163.0
42.540485481 163.0
42.545409337 157.0
42.550333193 184.0
42.555257049 160.0
42.560180905 147.0
42.565104761 144.0
42.570028617 181.0
42.574952473 160.0
42.579876329 149.0
42.584800185 133.0
42.589724041 150.0
42.594647897 156.0
42.599571753 141.0
42.604495609 168.0
42.609419465 151.0
42.614343321 156.0
42.619267177 138.0
42.624191033 156.0
42.629114889 143.0
42.634038745 145.0
42.638962601 152.0
42.643886457 147.0
42.648810313 149.0
42.653734169 144.0
42.658658025 145.0
42.663581881 155.0
42.668505737 177.0
42.673429593 148.0
42.678353449 146.0
42.683277305 154.0
42.688201161 139.0
42.693125017 168.0
42.698048873 174.0
42.702972729 162.0
42.707896585 143.0
42.712820441 145.0
42.717744297 158.0
42.722668153 139.0
42.727592009 174.0
42.732515865 151.0
42.737439721 147.0
42.742363577 137.0
42.747287433 147.0
42.752211290 148.0
42.757135146 167.0
42.762059002 136.0
42.766982858 161.0
42.771906714 156.0
42.776830570 168.0
42.781754426 140.0
42.786678282 124.0
42.791602138 161.0
42.796525994 136.0
42.801449850 137.0
42.806373706 153.0
42.811297562 145.0
42.816221418 158.0
42.821145274 134.0
42.826069130 139.0
42.830992986 162.0
42.835916842 146.0
42.840840698 130.0
42.845764554 137.0
42.850688410 146.0
42.855612266 146.0
42.860536122 152.0
42.865459978 161.0
42.870383834 158.0
42.875307690 149.0
42.880231546 140.0
42.885155402 136.0
42.890079258 143.0
42.895003114 153.0
42.899926970 139.0
42.904850826 140.0
42.909774682 171.0
42.914698538 134.0
42.919622394 146.0
42.924546250 146.0
42.929470106 149.0
42.934393962 152.0
42.939317818 136.0
42.944241674 150.0
42.949165530 135.0
42.954089386 156.0
42.959013242 158.0
42.963937098 143.0
42.968860954 123.0
42.973784810 132.0
42.978708666 137.0
42.983632522 152.0
42.988556378 142.0
42.993480234 134.0
42.998404090 149.0
43.003327946 133.0
43.008251802 150.0
43.013175658 157.0
43.018099514 143.0
43.023023370 144.0
43.027947226 143.0
43.032871082 120.0
43.037794938 119.0
43.042718794 149.0
43.047642650 139.0
43.052566506 143.0
43.057490362 132.0
43.062414218 141.0
43.067338074 142.0
43.072261930 153.0
43.077185786 152.0
43.082109642 130.0
43.087033498 157.0
43.091957354 145.0
43.096881210 150.0
43.101805066 142.0
43.106728922 139.0
43.111652778 147.0
43.116576634 133.0
43.121500490 131.0
43.126424346 124.0
43.131348202 139.0
43.136272058 142.0
43.141195914 158.0
43.146119770 162.0
43.151043626 145.0
43.155967482 132.0
43.160891338 125.0
43.165815194 136.0
43.170739050 129.0
43.175662906 137.0
43.180586762 139.0
43.185510618 153.0
43.190434474 155.0
43.195358330 138.0
43.200282186 154.0
43.205206042 155.0
43.210129898 123.0
43.215053754 124.0
43.219977610 144.0
43.224901466 154.0
43.229825322 140.0
43.234749178 144.0
43.239673034 147.0
43.244596890 135.0
43.249520747 146.0
43.254444603 139.0
43.259368459 139.0
43.264292315 165.0
43.269216171 139.0
43.274140027 162.0
43.279063883 158.0
43.283987739 140.0
43.288911595 146.0
43.293835451 134.0
43.298759307 161.0
43.303683163 147.0
43.308607019 137.0
43.313530875 138.0
43.318454731 128.0
43.323378587 144.0
43.328302443 134.0
43.333226299 132.0
43.338150155 143.0
43.343074011 137.0
43.347997867 138.0
43.352921723 141.0
43.357845579 147.0
43.362769435 160.0
43.367693291 135.0
43.372617147 143.0
43.377541003 119.0
43.382464859 133.0
43.387388715 152.0
43.392312571 135.0
43.397236427 126.0
43.402160283 132.0
43.407084139 140.0
43.412007995 122.0
43.416931851 126.0
43.421855707 154.0
43.426779563 144.0
43.431703419 139.0
43.436627275 153.0
43.441551131 142.0
43.446474987 142.0
43.451398843 138.0
43.456322699 132.0
43.461246555 178.0
43.466170411 134.0
43.471094267 141.0
43.476018123 153.0
43.480941979 133.0
43.485865835 157.0
43.490789691 139.0
43.495713547 139.0
43.500637403 131.0
43.505561259 134.0
43.510485115 149.0
43.515408971 139.0
43.520332827 139.0
43.525256683 129.0
43.530180539 123.0
43.535104395 151.0
43.540028251 128.0
43.544952107 125.0
43.549875963 134.0
43.554799819 114.0
43.559723675 151.0
43.564647531 158.0
43.569571387 155.0
43.574495243 145.0
43.579419099 144.0
43.584342955 126.0
43.589266811 140.0
43.594190667 132.0
43.599114523 132.0
43.604038379 158.0
43.608962235 128.0
43.613886091 128.0
43.618809947 141.0
43.623733803 149.0
43.628657659 152.0
43.633581515 147.0
43.638505371 149.0
43.643429227 147.0
43.648353083 133.0
43.653276939 155.0
43.658200795 133.0
43.663124651 129.0
43.668048507 158.0
43.672972363 132.0
43.677896219 139.0
43.682820075 150.0
43.687743931 145.0
43.692667787 162.0
43.697591643 142.0
43.702515499 141.0
43.707439355 155.0
43.712363211 132.0
43.717287067 159.0
43.722210923 148.0
43.727134779 148.0
43.732058635 168.0
43.736982491 140.0
43.741906347 149.0
43.746830203 132.0
43.751754060 134.0
43.756677916 130.0
43.761601772 127.0
43.766525628 149.0
43.771449484 148.0
43.776373340 169.0
43.781297196 131.0
43.786221052 133.0
43.791144908 154.0
43.796068764 139.0
43.800992620 155.0
43.805916476 162.0
43.810840332 150.0
43.815764188 127.0
43.820688044 138.0
43.825611900 141.0
43.830535756 174.0
43.835459612 154.0
43.840383468 141.0
43.845307324 149.0
43.850231180 158.0
43.855155036 146.0
43.860078892 149.0
43.865002748 150.0
43.869926604 166.0
43.874850460 162.0
43.879774316 148.0
43.884698172 130.0
43.889622028 164.0
43.894545884 141.0
43.899469740 164.0
43.904393596 128.0
43.909317452 156.0
43.914241308 165.0
43.919165164 149.0
43.924089020 134.0
43.929012876 170.0
43.933936732 137.0
43.938860588 165.0
43.943784444 151.0
43.948708300 154.0
43.953632156 145.0
43.958556012 156.0
43.963479868 133.0
43.968403724 147.0
43.973327580 172.0
43.978251436 151.0
43.983175292 154.0
43.988099148 152.0
43.993023004 150.0
43.997946860 142.0
44.002870716 150.0
44.007794572 159.0
44.012718428 157.0
44.017642284 170.0
44.022566140 153.0
44.027489996 151.0
44.032413852 154.0
44.037337708 154.0
44.042261564 155.0
44.047185420 164.0
44.052109276 147.0
44.057033132 169.0
44.061956988 192.0
44.066880844 170.0
44.071804700 167.0
44.076728556 158.0
44.081652412 190.0
44.086576268 134.0
44.091500124 167.0
44.096423980 173.0
44.101347836 165.0
44.106271692 195.0
44.111195548 146.0
44.116119404 181.0
44.121043260 184.0
44.125967116 186.0
44.130890972 161.0
44.135814828 172.0
44.140738684 173.0
44.145662540 165.0
44.150586396 154.0
44.155510252 188.0
44.160434108 177.0
44.165357964 179.0
44.170281820 164.0
44.175205676 188.0
44.180129532 172.0
44.185053388 174.0
44.189977244 182.0
44.194901100 192.0
44.199824956 214.0
44.204748812 186.0
44.209672668 202.0
44.214596524 200.0
44.219520380 207.0
44.224444236 189.0
44.229368092 206.0
44.234291948 208.0
44.239215804 225.0
44.244139660 200.0
44.249063517 206.0
44.253987373 195.0
44.258911229 215.0
44.263835085 221.0
44.268758941 214.0
44.273682797 198.0
44.278606653 240.0
44.283530509 204.0
44.288454365 204.0
44.293378221 246.0
44.298302077 219.0
44.303225933 247.0
44.308149789 239.0
44.313073645 239.0
44.317997501 260.0
44.322921357 267.0
44.327845213 271.0
44.332769069 268.0
44.337692925 267.0
44.342616781 269.0
44.347540637 264.0
44.352464493 297.0
44.357388349 269.0
44.362312205 257.0
44.367236061 289.0
44.372159917 312.0
44.377083773 264.0
44.382007629 301.0
44.386931485 279.0
44.391855341 309.0
44.396779197 292.0
44.401703053 304.0
44.406626909 296.0
44.411550765 302.0
44.416474621 277.0
44.421398477 297.0
44.426322333 319.0
44.431246189 240.0
44.436170045 256.0
44.441093901 314.0
44.446017757 300.0
44.450941613 296.0
44.455865469 267.0
44.460789325 261.0
44.465713181 271.0
44.470637037 272.0
44.475560893 262.0
44.480484749 259.0
44.485408605 272.0
44.490332461 264.0
44.495256317 246.0
44.500180173 260.0
44.505104029 271.0
44.510027885 271.0
44.514951741 286.0
44.519875597 228.0
44.524799453 249.0
44.529723309 225.0
44.534647165 232.0
44.539571021 249.0
44.544494877 220.0
44.549418733 231.0
44.554342589 235.0
44.559266445 273.0
44.564190301 239.0
44.569114157 236.0
44.574038013 218.0
44.578961869 217.0
44.583885725 201.0
44.588809581 214.0
44.593733437 197.0
44.598657293 197.0
44.603581149 189.0
44.608505005 207.0
44.613428861 207.0
44.618352717 206.0
44.623276573 200.0
44.628200429 195.0
44.633124285 218.0
44.638048141 186.0
44.642971997 168.0
44.647895853 193.0
44.652819709 180.0
44.657743565 176.0
44.662667421 187.0
44.667591277 148.0
44.672515133 173.0
44.677438989 168.0
44.682362845 172.0
44.687286701 176.0
44.692210557 179.0
44.697134413 187.0
44.702058269 175.0
44.706982125 163.0
44.711905981 164.0
44.716829837 169.0
44.721753693 154.0
44.726677549 152.0
44.731601405 177.0
44.736525261 158.0
44.741449117 184.0
44.746372973 157.0
44.751296830 146.0
44.756220686 173.0
44.761144542 175.0
44.766068398 170.0
44.770992254 154.0
44.775916110 164.0
44.780839966 136.0
44.785763822 143.0
44.790687678 179.0
44.795611534 127.0
44.800535390 150.0
44.805459246 140.0
44.810383102 158.0
44.815306958 150.0
44.820230814 132.0
44.825154670 133.0
44.830078526 149.0
44.835002382 145.0
44.839926238 148.0
44.844850094 154.0
44.849773950 158.0
44.854697806 150.0
44.859621662 140.0
44.864545518 148.0
44.869469374 156.0
44.874393230 137.0
44.879317086 143.0
44.884240942 162.0
44.889164798 119.0
44.894088654 147.0
44.899012510 158.0
44.903936366 142.0
44.908860222 128.0
44.913784078 141.0
44.918707934 139.0
44.923631790 141.0
44.928555646 132.0
44.933479502 163.0
44.938403358 124.0
44.943327214 149.0
44.948251070 120.0
44.953174926 110.0
44.958098782 138.0
44.963022638 151.0
44.967946494 134.0
44.972870350 137.0
44.977794206 136.0
44.982718062 147.0
44.987641918 129.0
44.992565774 127.0
44.997489630 129.0
