35.002061930 49.0
35.006985786 39.0
35.011909642 55.0
35.016833498 73.0
35.021757354 59.0
35.026681210 57.0
35.031605066 61.0
35.036528922 57.0
35.041452778 49.0
35.046376634 52.0
35.051300490 56.0
35.056224346 65.0
35.061148202 51.0
35.066072058 67.0
35.070995914 52.0
35.075919770 62.0
35.080843626 58.0
35.085767482 47.0
35.090691338 77.0
35.095615194 60.0
35.100539050 50.0
35.105462906 46.0
35.110386762 52.0
35.115310618 45.0
35.120234474 61.0
35.125158330 54.0
35.130082186 49.0
35.135006042 55.0
35.139929898 44.0
35.144853754 59.0
35.149777610 55.0
35.154701466 58.0
35.159625322 58.0
35.164549178 59.0
35.169473034 65.0
35.174396890 57.0
35.179320746 55.0
35.184244602 63.0
35.189168458 44.0
35.194092314 49.0
35.199016170 48.0
35.203940026 69.0
35.208863882 51.0
35.213787738 60.0
35.218711594 57.0
35.223635450 61.0
35.228559306 55.0
35.233483162 54.0
35.238407018 48.0
35.243330874 63.0
35.248254730 61.0
35.253178587 67.0
35.258102443 53.0
35.263026299 57.0
35.267950155 54.0
35.272874011 55.0
35.277797867 64.0
35.282721723 54.0
35.287645579 67.0
35.292569435 62.0
35.297493291 55.0
35.302417147 58.0
35.307341003 57.0
35.312264859 51.0
35.317188715 59.0
35.322112571 56.0
35.327036427 46.0
35.331960283 53.0
35.336884139 62.0
35.341807995 75.0
35.346731851 66.0
35.351655707 56.0
35.356579563 58.0
35.361503419 53.0
35.366427275 58.0
35.371351131 55.0
35.376274987 56.0
35.381198843 42.0
35.386122699 51.0
35.391046555 54.0
35.395970411 77.0
35.400894267 63.0
35.405818123 71.0
35.410741979 52.0
35.415665835 66.0
35.420589691 59.0
35.425513547 67.0
35.430437403 50.0
35.435361259 59.0
35.440285115 68.0
35.445208971 66.0
35.450132827 52.0
35.455056683 63.0
35.459980539 75.0
35.464904395 67.0
35.469828251 65.0
35.474752107 64.0
35.479675963 69.0
35.484599819 49.0
35.489523675 53.0
35.494447531 51.0
35.499371387 66.0
35.504295243 43.0
35.509219099 72.0
35.514142955 59.0
35.519066811 64.0
35.523990667 64.0
35.528914523 62.0
35.533838379 65.0
35.538762235 60.0
35.543686091 70.0
35.548609947 48.0
35.553533803 68.0
35.558457659 69.0
35.563381515 75.0
35.568305371 80.0
35.573229227 60.0
35.578153083 61.0
35.583076939 55.0
35.588000795 56.0
35.592924651 53.0
35.597848507 67.0
35.602772363 62.0
35.607696219 62.0
35.612620075 61.0
35.617543931 55.0
35.622467787 59.0
35.627391643 67.0
35.632315499 57.0
35.637239355 63.0
35.642163211 65.0
35.647087067 48.0
35.652010923 42.0
35.656934779 67.0
35.661858635 48.0
35.666782491 64.0
35.671706347 62.0
35.676630203 51.0
35.681554059 68.0
35.686477915 56.0
35.691401771 58.0
35.696325627 61.0
35.701249483 66.0
35.706173339 63.0
35.711097195 55.0
35.716021051 54.0
35.720944907 57.0
35.725868763 49.0
35.730792619 64.0
35.735716475 52.0
35.740640331 56.0
35.745564187 55.0
35.750488043 71.0
35.755411900 52.0
35.760335756 57.0
35.765259612 56.0
35.770183468 69.0
35.775107324 54.0
35.780031180 53.0
35.784955036 57.0
35.789878892 60.0
35.794802748 55.0
35.799726604 59.0
35.804650460 41.0
35.809574316 54.0
35.814498172 51.0
35.819422028 56.0
35.824345884 55.0
35.829269740 49.0
35.834193596 50.0
35.839117452 60.0
35.844041308 72.0
35.848965164 57.0
35.853889020 48.0
35.858812876 65.0
35.863736732 48.0
35.868660588 61.0
35.873584444 53.0
35.878508300 68.0
35.883432156 64.0
35.888356012 64.0
35.893279868 52.0
35.898203724 43.0
35.903127580 58.0
35.908051436 54.0
35.912975292 58.0
35.917899148 57.0
35.922823004 68.0
35.927746860 45.0
35.932670716 60.0
35.937594572 48.0
35.942518428 54.0
35.947442284 80.0
35.952366140 55.0
35.957289996 54.0
35.962213852 58.0
35.967137708 53.0
35.972061564 56.0
35.976985420 57.0
35.981909276 55.0
35.986833132 54.0
35.991756988 66.0
35.996680844 54.0
36.001604700 45.0
36.006528556 65.0
36.011452412 52.0
36.016376268 46.0
36.021300124 43.0
36.026223980 60.0
36.031147836 57.0
36.036071692 54.0
36.040995548 47.0
36.045919404 58.0
36.050843260 55.0
36.055767116 64.0
36.060690972 64.0
36.065614828 45.0
36.070538684 50.0
36.075462540 46.0
36.080386396 55.0
36.085310252 53.0
36.090234108 45.0
36.095157964 52.0
36.100081820 65.0
36.105005676 51.0
36.109929532 50.0
36.114853388 60.0
36.119777244 59.0
36.124701100 58.0
36.129624956 63.0
36.134548812 54.0
36.139472668 45.0
36.144396524 74.0
36.149320380 55.0
36.154244236 54.0
36.159168092 44.0
36.164091948 59.0
36.169015804 60.0
36.173939660 75.0
36.178863516 54.0
36.183787372 66.0
36.188711228 60.0
36.193635084 62.0
36.198558940 62.0
36.203482796 62.0
36.208406652 56.0
36.213330508 51.0
36.218254364 56.0
36.223178220 50.0
36.228102076 47.0
36.233025932 52.0
36.237949788 63.0
36.242873644 55.0
36.247797500 70.0
36.252721357 63.0
36.257645213 57.0
36.262569069 46.0
36.267492925 50.0
36.272416781 59.0
36.277340637 55.0
36.282264493 55.0
36.287188349 46.0
36.292112205 64.0
36.297036061 51.0
36.301959917 59.0
36.306883773 61.0
36.311807629 57.0
36.316731485 64.0
36.321655341 45.0
36.326579197 61.0
36.331503053 54.0
36.336426909 42.0
36.341350765 62.0
36.346274621 61.0
36.351198477 62.0
36.356122333 49.0
36.361046189 53.0
36.365970045 77.0
36.370893901 46.0
36.375817757 75.0
36.380741613 61.0
36.385665469 50.0
36.390589325 68.0
36.395513181 55.0
36.400437037 67.0
36.405360893 51.0
36.410284749 53.0
36.415208605 61.0
36.420132461 55.0
36.425056317 58.0
36.429980173 58.0
36.434904029 66.0
36.439827885 60.0
36.444751741 45.0
36.449675597 49.0
36.454599453 47.0
36.459523309 51.0
36.464447165 62.0
36.469371021 53.0
36.474294877 50.0
36.479218733 71.0
36.484142589 53.0
36.489066445 63.0
36.493990301 59.0
36.498914157 64.0
36.503838013 48.0
36.508761869 60.0
36.513685725 60.0
36.518609581 60.0
36.523533437 45.0
36.528457293 58.0
36.533381149 52.0
36.538305005 63.0
36.543228861 54.0
36.548152717 69.0
36.553076573 48.0
36.558000429 66.0
36.562924285 46.0
36.567848141 61.0
36.572771997 73.0
36.577695853 50.0
36.582619709 67.0
36.587543565 58.0
36.592467421 67.0
36.597391277 65.0
36.602315133 59.0
36.607238989 54.0
36.612162845 63.0
36.617086701 58.0
36.622010557 65.0
36.626934413 49.0
36.631858269 56.0
36.636782125 58.0
36.641705981 47.0
36.646629837 55.0
36.651553693 52.0
36.656477549 47.0
36.661401405 59.0
36.666325261 45.0
36.671249117 51.0
36.676172973 55.0
36.681096829 51.0
36.686020685 51.0
36.690944541 59.0
36.695868397 59.0
36.700792253 46.0
36.705716109 66.0
36.710639965 83.0
36.715563821 53.0
36.720487677 62.0
36.725411533 59.0
36.730335389 56.0
36.735259245 55.0
36.740183101 56.0
36.745106957 55.0
36.750030813 54.0
36.754954670 55.0
36.759878526 43.0
36.764802382 51.0
36.769726238 55.0
36.774650094 53.0
36.779573950 54.0
36.784497806 64.0
36.789421662 69.0
36.794345518 47.0
36.799269374 58.0
36.804193230 65.0
36.809117086 67.0
36.814040942 76.0
36.818964798 48.0
36.823888654 72.0
36.828812510 51.0
36.833736366 51.0
36.838660222 62.0
36.843584078 45.0
36.848507934 59.0
36.853431790 55.0
36.858355646 68.0
36.863279502 80.0
36.868203358 43.0
36.873127214 61.0
36.878051070 61.0
36.882974926 58.0
36.887898782 43.0
36.892822638 62.0
36.897746494 67.0
36.902670350 66.0
36.907594206 72.0
36.912518062 58.0
36.917441918 62.0
36.922365774 53.0
36.927289630 59.0
36.932213486 61.0
36.937137342 41.0
36.942061198 53.0
36.946985054 52.0
36.951908910 57.0
36.956832766 61.0
36.961756622 62.0
36.966680478 60.0
36.971604334 56.0
36.976528190 59.0
36.981452046 60.0
36.986375902 59.0
36.991299758 50.0
36.996223614 64.0
37.001147470 43.0
37.006071326 63.0
37.010995182 51.0
37.015919038 60.0
37.020842894 59.0
37.025766750 48.0
37.030690606 62.0
37.035614462 48.0
37.040538318 50.0
37.045462174 48.0
37.050386030 57.0
37.055309886 52.0
37.060233742 48.0
37.065157598 55.0
37.070081454 74.0
37.075005310 63.0
37.079929166 56.0
37.084853022 64.0
37.089776878 57.0
37.094700734 36.0
37.099624590 68.0
37.104548446 51.0
37.109472302 48.0
37.114396158 50.0
37.119320014 53.0
37.124243870 69.0
37.129167726 62.0
37.134091582 66.0
37.139015438 67.0
37.143939294 55.0
37.148863150 63.0
37.153787006 35.0
37.158710862 73.0
37.163634718 50.0
37.168558574 68.0
37.173482430 49.0
37.178406286 60.0
37.183330142 77.0
37.188253998 66.0
37.193177854 74.0
37.198101710 61.0
37.203025566 64.0
37.207949422 54.0
37.212873278 52.0
37.217797134 49.0
37.222720990 65.0
37.227644846 65.0
37.232568702 57.0
37.237492558 63.0
37.242416414 65.0
37.247340270 62.0
37.252264127 61.0
37.257187983 56.0
37.262111839 53.0
37.267035695 66.0
37.271959551 63.0
37.276883407 67.0
37.281807263 55.0
37.286731119 66.0
37.291654975 69.0
37.296578831 59.0
37.301502687 61.0
37.306426543 50.0
37.311350399 68.0
37.316274255 55.0
37.321198111 49.0
37.326121967 63.0
37.331045823 61.0
37.335969679 42.0
37.340893535 51.0
37.345817391 49.0
37.350741247 65.0
37.355665103 49.0
37.360588959 52.0
37.365512815 51.0
37.370436671 62.0
37.375360527 62.0
37.380284383 72.0
37.385208239 82.0
37.390132095 88.0
37.395055951 105.0
37.399979807 86.0
37.404903663 96.0
37.409827519 126.0
37.414751375 132.0
37.419675231 127.0
37.424599087 139.0
37.429522943 151.0
37.434446799 131.0
37.439370655 154.0
37.444294511 133.0
37.449218367 113.0
37.454142223 105.0
37.459066079 82.0
37.463989935 86.0
37.468913791 72.0
37.473837647 77.0
37.478761503 83.0
37.483685359 70.0
37.488609215 63.0
37.493533071 89.0
37.498456927 78.0
37.503380783 62.0
37.508304639 63.0
37.513228495 64.0
37.518152351 70.0
37.523076207 67.0
37.528000063 60.0
37.532923919 54.0
37.537847775 61.0
37.542771631 62.0
37.547695487 65.0
37.552619343 83.0
37.557543199 63.0
37.562467055 64.0
37.567390911 63.0
37.572314767 57.0
37.577238623 71.0
37.582162479 70.0
37.587086335 56.0
37.592010191 63.0
37.596934047 55.0
37.601857903 62.0
37.606781759 60.0
37.611705615 56.0
37.616629471 72.0
37.621553327 62.0
37.626477183 72.0
37.631401039 58.0
37.636324895 71.0
37.641248751 69.0
37.646172607 72.0
37.651096463 46.0
37.656020319 60.0
37.660944175 70.0
37.665868031 66.0
37.670791887 56.0
37.675715743 46.0
37.680639599 52.0
37.685563455 69.0
37.690487311 64.0
37.695411167 72.0
37.700335023 56.0
37.705258879 55.0
37.710182735 53.0
37.715106591 74.0
37.720030447 64.0
37.724954303 50.0
37.729878159 48.0
37.734802015 59.0
37.739725871 58.0
37.744649727 65.0
37.749573583 59.0
37.754497440 49.0
37.759421296 69.0
37.764345152 62.0
37.769269008 69.0
37.774192864 66.0
37.779116720 80.0
37.784040576 65.0
37.788964432 62.0
37.793888288 72.0
37.798812144 57.0
37.803736000 59.0
37.808659856 62.0
37.813583712 70.0
37.818507568 57.0
37.823431424 54.0
37.828355280 65.0
37.833279136 62.0
37.838202992 55.0
37.843126848 51.0
37.848050704 54.0
37.852974560 59.0
37.857898416 56.0
37.862822272 57.0
37.867746128 67.0
37.872669984 52.0
37.877593840 73.0
37.882517696 55.0
37.887441552 76.0
37.892365408 59.0
37.897289264 63.0
37.902213120 66.0
37.907136976 70.0
37.912060832 60.0
37.916984688 72.0
37.921908544 70.0
37.926832400 55.0
37.931756256 67.0
37.936680112 58.0
37.941603968 60.0
37.946527824 80.0
37.951451680 55.0
37.956375536 47.0
37.961299392 67.0
37.966223248 68.0
37.971147104 63.0
37.976070960 64.0
37.980994816 63.0
37.985918672 69.0
37.990842528 62.0
37.995766384 68.0
38.000690240 66.0
38.005614096 66.0
38.010537952 51.0
38.015461808 56.0
38.020385664 66.0
38.025309520 64.0
38.030233376 68.0
38.035157232 44.0
38.040081088 61.0
38.045004944 57.0
38.049928800 65.0
38.054852656 66.0
38.059776512 65.0
38.064700368 44.0
38.069624224 63.0
38.074548080 60.0
38.079471936 65.0
38.084395792 70.0
38.089319648 59.0
38.094243504 64.0
38.099167360 76.0
38.104091216 41.0
38.109015072 69.0
38.113938928 71.0
38.118862784 56.0
38.123786640 62.0
38.128710496 75.0
38.133634352 60.0
38.138558208 62.0
38.143482064 65.0
38.148405920 74.0
38.153329776 58.0
38.158253632 60.0
38.163177488 63.0
38.168101344 65.0
38.173025200 60.0
38.177949056 71.0
38.182872912 76.0
38.187796768 69.0
38.192720624 74.0
38.197644480 55.0
38.202568336 54.0
38.207492192 63.0
38.212416048 61.0
38.217339904 73.0
38.222263760 64.0
38.227187616 58.0
38.232111472 64.0
38.237035328 72.0
38.241959184 62.0
38.246883040 71.0
38.251806897 71.0
38.256730753 64.0
38.261654609 67.0
38.266578465 68.0
38.271502321 80.0
38.276426177 73.0
38.281350033 64.0
38.286273889 64.0
38.291197745 73.0
38.296121601 82.0
38.301045457 60.0
38.305969313 73.0
38.310893169 79.0
38.315817025 65.0
38.320740881 75.0
38.325664737 80.0
38.330588593 66.0
38.335512449 65.0
38.340436305 70.0
38.345360161 60.0
38.350284017 86.0
38.355207873 73.0
38.360131729 77.0
38.365055585 69.0
38.369979441 85.0
38.374903297 65.0
38.379827153 69.0
38.384751009 70.0
38.389674865 67.0
38.394598721 77.0
38.399522577 78.0
38.404446433 88.0
38.409370289 87.0
38.414294145 76.0
38.419218001 77.0
38.424141857 65.0
38.429065713 77.0
38.433989569 89.0
38.438913425 67.0
38.443837281 77.0
38.448761137 69.0
38.453684993 67.0
38.458608849 84.0
38.463532705 72.0
38.468456561 75.0
38.473380417 78.0
38.478304273 78.0
38.483228129 69.0
38.488151985 82.0
38.493075841 100.0
38.497999697 59.0
38.502923553 80.0
38.507847409 84.0
38.512771265 63.0
38.517695121 85.0
38.522618977 78.0
38.527542833 97.0
38.532466689 86.0
38.537390545 78.0
38.542314401 98.0
38.547238257 90.0
38.552162113 93.0
38.557085969 85.0
38.562009825 85.0
38.566933681 78.0
38.571857537 81.0
38.576781393 79.0
38.581705249 88.0
38.586629105 80.0
38.591552961 81.0
38.596476817 99.0
38.601400673 86.0
38.606324529 94.0
38.611248385 90.0
38.616172241 93.0
38.621096097 91.0
38.626019953 76.0
38.630943809 76.0
38.635867665 80.0
38.640791521 87.0
38.645715377 97.0
38.650639233 96.0
38.655563089 78.0
38.660486945 102.0
38.665410801 104.0
38.670334657 107.0
38.675258513 110.0
38.680182369 104.0
38.685106225 95.0
38.690030081 101.0
38.694953937 83.0
38.699877793 82.0
38.704801649 111.0
38.709725505 96.0
38.714649361 99.0
38.719573217 102.0
38.724497073 91.0
38.729420929 108.0
38.734344785 94.0
38.739268641 97.0
38.744192497 91.0
38.749116353 133.0
38.754040210 105.0
38.758964066 114.0
38.763887922 108.0
38.768811778 106.0
38.773735634 114.0
38.778659490 117.0
38.783583346 122.0
38.788507202 107.0
38.793431058 112.0
38.798354914 120.0
38.803278770 135.0
38.808202626 127.0
38.813126482 121.0
38.818050338 119.0
38.822974194 131.0
38.827898050 113.0
38.832821906 106.0
38.837745762 134.0
38.842669618 138.0
38.847593474 136.0
38.852517330 138.0
38.857441186 122.0
38.862365042 165.0
38.867288898 142.0
38.872212754 159.0
38.877136610 163.0
38.882060466 139.0
38.886984322 162.0
38.891908178 166.0
38.896832034 159.0
38.901755890 170.0
38.906679746 155.0
38.911603602 160.0
38.916527458 180.0
38.921451314 169.0
38.926375170 150.0
38.931299026 172.0
38.936222882 184.0
38.941146738 168.0
38.946070594 187.0
38.950994450 138.0
38.955918306 191.0
38.960842162 190.0
38.965766018 178.0
38.970689874 198.0
38.975613730 209.0
38.980537586 204.0
38.985461442 166.0
38.990385298 204.0
38.995309154 177.0
39.000233010 180.0
39.005156866 208.0
39.010080722 220.0
39.015004578 219.0
39.019928434 197.0
39.024852290 201.0
39.029776146 229.0
39.034700002 232.0
39.039623858 246.0
39.044547714 272.0
39.049471570 233.0
39.054395426 269.0
39.059319282 227.0
39.064243138 242.0
39.069166994 243.0
39.074090850 267.0
39.079014706 316.0
39.083938562 266.0
39.088862418 292.0
39.093786274 284.0
39.098710130 288.0
39.103633986 283.0
39.108557842 318.0
39.113481698 320.0
39.118405554 308.0
39.123329410 343.0
39.128253266 339.0
39.133177122 366.0
39.138100978 355.0
39.143024834 334.0
39.147948690 397.0
39.152872546 394.0
39.157796402 373.0
39.162720258 391.0
39.167644114 412.0
39.172567970 445.0
39.177491826 428.0
39.182415682 460.0
39.187339538 481.0
39.192263394 503.0
39.197187250 518.0
39.202111106 517.0
39.207034962 579.0
39.211958818 552.0
39.216882674 586.0
39.221806530 615.0
39.226730386 678.0
39.231654242 661.0
39.236578098 689.0
39.241501954 714.0
39.246425810 794.0
39.251349667 807.0
39.256273523 786.0
39.261197379 816.0
39.266121235 863.0
39.271045091 937.0
39.275968947 929.0
39.280892803 902.0
39.285816659 962.0
39.290740515 1081.0
39.295664371 1141.0
39.300588227 1116.0
39.305512083 1176.0
39.310435939 1177.0
39.315359795 1253.0
39.320283651 1302.0
39.325207507 1342.0
39.330131363 1327.0
39.335055219 1357.0
39.339979075 1481.0
39.344902931 1558.0
39.349826787 1566.0
39.354750643 1647.0
39.359674499 1743.0
39.364598355 1732.0
39.369522211 1863.0
39.374446067 1871.0
39.379369923 1820.0
39.384293779 1960.0
39.389217635 2038.0
39.394141491 2138.0
39.399065347 2206.0
39.403989203 2199.0
39.408913059 2278.0
39.413836915 2289.0
39.418760771 2468.0
39.423684627 2469.0
39.428608483 2568.0
39.433532339 2676.0
39.438456195 2723.0
39.443380051 2737.0
39.448303907 2948.0
39.453227763 2986.0
39.458151619 3054.0
39.463075475 3055.0
39.467999331 3113.0
39.472923187 3146.0
39.477847043 3363.0
39.482770899 3327.0
39.487694755 3448.0
39.492618611 3444.0
39.497542467 3495.0
39.502466323 3494.0
39.507390179 3501.0
39.512314035 3535.0
39.517237891 3578.0
39.522161747 3564.0
39.527085603 3485.0
39.532009459 3500.0
39.536933315 3440.0
39.541857171 3357.0
39.546781027 3410.0
39.551704883 3328.0
39.556628739 3365.0
39.561552595 3220.0
39.566476451 3266.0
39.571400307 3101.0
39.576324163 3059.0
39.581248019 2847.0
39.586171875 2833.0
39.591095731 2832.0
39.596019587 2648.0
39.600943443 2623.0
39.605867299 2588.0
39.610791155 2443.0
39.615715011 2427.0
39.620638867 2319.0
39.625562723 2322.0
39.630486579 2143.0
39.635410435 2009.0
39.640334291 1992.0
39.645258147 2013.0
39.650182003 1834.0
39.655105859 1781.0
39.660029715 1595.0
39.664953571 1642.0
39.669877427 1489.0
39.674801283 1506.0
39.679725139 1364.0
39.684648995 1280.0
39.689572851 1232.0
39.694496707 1168.0
39.699420563 1146.0
39.704344419 1034.0
39.709268275 995.0
39.714192131 931.0
39.719115987 875.0
39.724039843 843.0
39.728963699 799.0
39.733887555 788.0
39.738811411 693.0
39.743735267 645.0
39.748659123 683.0
39.753582980 584.0
39.758506836 569.0
39.763430692 550.0
39.768354548 507.0
39.773278404 488.0
39.778202260 506.0
39.783126116 517.0
39.788049972 465.0
39.792973828 410.0
39.797897684 404.0
39.802821540 396.0
39.807745396 332.0
39.812669252 384.0
39.817593108 311.0
39.822516964 312.0
39.827440820 299.0
39.832364676 329.0
39.837288532 269.0
39.842212388 269.0
39.847136244 278.0
39.852060100 266.0
39.856983956 266.0
39.861907812 203.0
39.866831668 223.0
39.871755524 179.0
39.876679380 248.0
39.881603236 216.0
39.886527092 219.0
39.891450948 200.0
39.896374804 217.0
39.901298660 230.0
39.906222516 188.0
39.911146372 202.0
39.916070228 164.0
39.920994084 171.0
39.925917940 149.0
39.930841796 201.0
39.935765652 151.0
39.940689508 187.0
39.945613364 164.0
39.950537220 151.0
39.955461076 152.0
39.960384932 146.0
39.965308788 139.0
39.970232644 147.0
39.975156500 158.0
39.980080356 115.0
39.985004212 111.0
39.989928068 140.0
39.994851924 138.0
39.999775780 142.0
40.004699636 122.0
40.009623492 128.0
40.014547348 115.0
40.019471204 127.0
40.024395060 109.0
40.029318916 114.0
40.034242772 132.0
40.039166628 114.0
40.044090484 106.0
40.049014340 99.0
40.053938196 108.0
40.058862052 107.0
40.063785908 128.0
40.068709764 97.0
40.073633620 92.0
40.078557476 112.0
40.083481332 123.0
40.088405188 121.0
40.093329044 90.0
40.098252900 114.0
40.103176756 104.0
40.108100612 99.0
40.113024468 115.0
40.117948324 108.0
40.122872180 87.0
40.127796036 93.0
40.132719892 99.0
40.137643748 90.0
40.142567604 91.0
40.147491460 100.0
40.152415316 109.0
40.157339172 83.0
40.162263028 103.0
40.167186884 76.0
40.172110740 83.0
40.177034596 94.0
40.181958452 77.0
40.186882308 73.0
40.191806164 103.0
40.196730020 89.0
40.201653876 101.0
40.206577732 84.0
40.211501588 65.0
40.216425444 76.0
40.221349300 79.0
40.226273156 83.0
40.231197012 76.0
40.236120868 77.0
40.241044724 81.0
40.245968580 77.0
40.250892437 79.0
40.255816293 101.0
40.260740149 93.0
40.265664005 85.0
40.270587861 51.0
40.275511717 61.0
40.280435573 91.0
40.285359429 75.0
40.290283285 75.0
40.295207141 76.0
40.300130997 84.0
40.305054853 65.0
40.309978709 82.0
40.314902565 80.0
40.319826421 80.0
40.324750277 82.0
40.329674133 73.0
40.334597989 83.0
40.339521845 84.0
40.344445701 84.0
40.349369557 73.0
40.354293413 81.0
40.359217269 88.0
40.364141125 66.0
40.369064981 82.0
40.373988837 75.0
40.378912693 81.0
40.383836549 87.0
40.388760405 88.0
40.393684261 80.0
40.398608117 65.0
40.403531973 60.0
40.408455829 101.0
40.413379685 94.0
40.418303541 59.0
40.423227397 70.0
40.428151253 67.0
40.433075109 68.0
40.437998965 69.0
40.442922821 86.0
40.447846677 56.0
40.452770533 77.0
40.457694389 77.0
40.462618245 94.0
40.467542101 82.0
40.472465957 75.0
40.477389813 75.0
40.482313669 65.0
40.487237525 70.0
40.492161381 85.0
40.497085237 73.0
40.502009093 66.0
40.506932949 81.0
40.511856805 65.0
40.516780661 73.0
40.521704517 75.0
40.526628373 73.0
40.531552229 79.0
40.536476085 78.0
40.541399941 75.0
40.546323797 84.0
40.551247653 77.0
40.556171509 78.0
40.561095365 72.0
40.566019221 81.0
40.570943077 77.0
40.575866933 79.0
40.580790789 77.0
40.585714645 88.0
40.590638501 70.0
40.595562357 76.0
40.600486213 60.0
40.605410069 75.0
40.610333925 86.0
40.615257781 76.0
40.620181637 84.0
40.625105493 76.0
40.630029349 81.0
40.634953205 81.0
40.639877061 80.0
40.644800917 75.0
40.649724773 89.0
40.654648629 70.0
40.659572485 72.0
40.664496341 77.0
40.669420197 74.0
40.674344053 58.0
40.679267909 72.0
40.684191765 79.0
40.689115621 87.0
40.694039477 87.0
40.698963333 64.0
40.703887189 79.0
40.708811045 66.0
40.713734901 92.0
40.718658757 87.0
40.723582613 78.0
40.728506469 83.0
40.733430325 78.0
40.738354181 75.0
40.743278037 72.0
40.748201893 93.0
40.753125750 83.0
40.758049606 69.0
40.762973462 77.0
40.767897318 90.0
40.772821174 74.0
40.777745030 73.0
40.782668886 77.0
40.787592742 98.0
40.792516598 86.0
40.797440454 114.0
40.802364310 66.0
40.807288166 82.0
40.812212022 88.0
40.817135878 75.0
40.822059734 89.0
40.826983590 89.0
40.831907446 72.0
40.836831302 75.0
40.841755158 79.0
40.846679014 81.0
40.851602870 92.0
40.856526726 77.0
40.861450582 87.0
40.866374438 96.0
40.871298294 74.0
40.876222150 95.0
40.881146006 88.0
40.886069862 95.0
40.890993718 89.0
40.895917574 76.0
40.900841430 82.0
40.905765286 74.0
40.910689142 97.0
40.915612998 78.0
40.920536854 73.0
40.925460710 80.0
40.930384566 76.0
40.935308422 90.0
40.940232278 103.0
40.945156134 95.0
40.950079990 94.0
40.955003846 71.0
40.959927702 84.0
40.964851558 95.0
40.969775414 78.0
40.974699270 89.0
40.979623126 88.0
40.984546982 95.0
40.989470838 89.0
40.994394694 107.0
40.999318550 82.0
41.004242406 86.0
41.009166262 90.0
41.014090118 95.0
41.019013974 96.0
41.023937830 75.0
41.028861686 95.0
41.033785542 75.0
41.038709398 93.0
41.043633254 86.0
41.048557110 103.0
41.053480966 119.0
41.058404822 110.0
41.063328678 98.0
41.068252534 94.0
41.073176390 88.0
41.078100246 82.0
41.083024102 115.0
41.087947958 109.0
41.092871814 98.0
41.097795670 91.0
41.102719526 102.0
41.107643382 106.0
41.112567238 99.0
41.117491094 94.0
41.122414950 92.0
41.127338806 92.0
41.132262662 92.0
41.137186518 89.0
41.142110374 88.0
41.147034230 99.0
41.151958086 94.0
41.156881942 106.0
41.161805798 108.0
41.166729654 111.0
41.171653510 114.0
41.176577366 107.0
41.181501222 108.0
41.186425078 112.0
41.191348934 118.0
41.196272790 105.0
41.201196646 125.0
41.206120502 97.0
41.211044358 112.0
41.215968214 127.0
41.220892070 115.0
41.225815926 120.0
41.230739782 111.0
41.235663638 130.0
41.240587494 120.0
41.245511350 116.0
41.250435207 104.0
41.255359063 107.0
41.260282919 135.0
41.265206775 129.0
41.270130631 115.0
41.275054487 133.0
41.279978343 131.0
41.284902199 131.0
41.289826055 105.0
41.294749911 108.0
41.299673767 114.0
41.304597623 141.0
41.309521479 134.0
41.314445335 133.0
41.319369191 140.0
41.324293047 140.0
41.329216903 122.0
41.334140759 147.0
41.339064615 146.0
41.343988471 159.0
41.348912327 160.0
41.353836183 164.0
41.358760039 179.0
41.363683895 209.0
41.368607751 209.0
41.373531607 259.0
41.378455463 183.0
41.383379319 278.0
41.388303175 270.0
41.393227031 307.0
41.398150887 366.0
41.403074743 431.0
41.407998599 414.0
41.412922455 433.0
41.417846311 487.0
41.422770167 473.0
41.427694023 430.0
41.432617879 485.0
41.437541735 438.0
41.442465591 452.0
41.447389447 473.0
41.452313303 408.0
41.457237159 415.0
41.462161015 399.0
41.467084871 391.0
41.472008727 435.0
41.476932583 398.0
41.481856439 426.0
41.486780295 450.0
41.491704151 498.0
41.496628007 510.0
41.501551863 494.0
41.506475719 604.0
41.511399575 637.0
41.516323431 657.0
41.521247287 698.0
41.526171143 855.0
41.531094999 955.0
41.536018855 1100.0
41.540942711 1223.0
41.545866567 1462.0
41.550790423 1809.0
41.555714279 2248.0
41.560638135 2846.0
41.565561991 3702.0
41.570485847 5165.0
41.575409703 7857.0
41.580333559 12707.0
41.585257415 20375.0
41.590181271 29639.0
41.595105127 36953.0
41.600028983 40614.0
41.604952839 41431.0
41.609876695 39054.0
41.614800551 33144.0
41.619724407 24267.0
41.624648263 16447.0
41.629572119 10666.0
41.634495975 7122.0
41.639419831 5033.0
41.644343687 3681.0
41.649267543 2982.0
41.654191399 2575.0
41.659115255 2339.0
41.664039111 2351.0
41.668962967 2396.0
41.673886823 2808.0
41.678810679 3364.0
41.683734535 4712.0
41.688658391 7122.0
41.693582247 10621.0
41.698506103 14686.0
41.703429959 17878.0
41.708353815 19819.0
41.713277671 20048.0
41.718201527 18806.0
41.723125383 16108.0
41.728049239 12245.0
41.732973095 8546.0
41.737896951 5776.0
41.742820807 3938.0
41.747744663 2857.0
41.752668520 2167.0
41.757592376 1579.0
41.762516232 1220.0
41.767440088 1074.0
41.772363944 919.0
41.777287800 778.0
41.782211656 717.0
41.787135512 648.0
41.792059368 593.0
41.796983224 557.0
41.801907080 507.0
41.806830936 458.0
41.811754792 451.0
41.816678648 410.0
41.821602504 383.0
41.826526360 372.0
41.831450216 344.0
41.836374072 348.0
41.841297928 321.0
41.846221784 301.0
41.851145640 276.0
41.856069496 286.0
41.860993352 211.0
41.865917208 275.0
41.870841064 200.0
41.875764920 204.0
41.880688776 187.0
41.885612632 155.0
41.890536488 179.0
41.895460344 194.0
41.900384200 188.0
41.905308056 149.0
41.910231912 166.0
41.915155768 174.0
41.920079624 170.0
41.925003480 161.0
41.929927336 153.0
41.934851192 167.0
41.939775048 157.0
41.944698904 169.0
41.949622760 144.0
41.954546616 137.0
41.959470472 150.0
41.964394328 149.0
41.969318184 141.0
41.974242040 131.0
41.979165896 139.0
41.984089752 153.0
41.989013608 127.0
41.993937464 142.0
41.998861320 118.0
42.003785176 153.0
42.008709032 131.0
42.013632888 140.0
42.018556744 97.0
42.023480600 119.0
42.028404456 124.0
42.033328312 108.0
42.038252168 124.0
42.043176024 121.0
42.048099880 139.0
42.053023736 94.0
42.057947592 101.0
42.062871448 105.0
42.067795304 116.0
42.072719160 94.0
42.077643016 94.0
42.082566872 91.0
42.087490728 91.0
42.092414584 113.0
42.097338440 100.0
42.102262296 99.0
42.107186152 98.0
42.112110008 93.0
42.117033864 96.0
42.121957720 94.0
42.126881576 115.0
42.131805432 89.0
42.136729288 103.0
42.141653144 99.0
42.146577000 78.0
42.151500856 93.0
42.156424712 97.0
42.161348568 85.0
42.166272424 96.0
42.171196280 87.0
42.176120136 85.0
42.181043992 87.0
42.185967848 99.0
42.190891704 83.0
42.195815560 80.0
42.200739416 94.0
42.205663272 88.0
42.210587128 90.0
42.215510984 83.0
42.220434840 86.0
42.225358696 69.0
42.230282552 84.0
42.235206408 96.0
42.240130264 98.0
42.245054120 69.0
42.249977977 87.0
42.254901833 71.0
42.259825689 91.0
42.264749545 85.0
42.269673401 77.0
42.274597257 95.0
42.279521113 79.0
42.284444969 81.0
42.289368825 88.0
42.294292681 77.0
42.299216537 71.0
42.304140393 94.0
42.309064249 68.0
42.313988105 64.0
42.318911961 81.0
42.323835817 69.0
42.328759673 76.0
42.333683529 68.0
42.338607385 77.0
42.343531241 64.0
42.348455097 68.0
42.353378953 70.0
42.358302809 82.0
42.363226665 60.0
42.368150521 79.0
42.373074377 67.0
42.377998233 61.0
42.382922089 83.0
42.387845945 71.0
42.392769801 71.0
42.397693657 83.0
42.402617513 63.0
42.407541369 74.0
42.412465225 69.0
42.417389081 69.0
42.422312937 70.0
42.427236793 69.0
42.432160649 81.0
42.437084505 83.0
42.442008361 66.0
42.446932217 73.0
42.451856073 86.0
42.456779929 63.0
42.461703785 76.0
42.466627641 62.0
42.471551497 79.0
42.476475353 73.0
42.481399209 78.0
42.486323065 72.0
42.491246921 60.0
42.496170777 73.0
42.501094633 61.0
42.506018489 98.0
42.510942345 74.0
42.515866201 84.0
42.520790057 78.0
42.525713913 71.0
42.530637769 72.0
42.535561625 77.0
42.540485481 64.0
42.545409337 71.0
42.550333193 77.0
42.555257049 78.0
42.560180905 66.0
42.565104761 68.0
42.570028617 78.0
42.574952473 82.0
42.579876329 80.0
42.584800185 57.0
42.589724041 69.0
42.594647897 70.0
42.599571753 64.0
42.604495609 71.0
42.609419465 61.0
42.614343321 74.0
42.619267177 68.0
42.624191033 94.0
42.629114889 72.0
42.634038745 68.0
42.638962601 69.0
42.643886457 67.0
42.648810313 68.0
42.653734169 64.0
42.658658025 59.0
42.663581881 46.0
42.668505737 64.0
42.673429593 60.0
42.678353449 63.0
42.683277305 72.0
42.688201161 77.0
42.693125017 79.0
42.698048873 58.0
42.702972729 68.0
42.707896585 70.0
42.712820441 74.0
42.717744297 65.0
42.722668153 81.0
42.727592009 77.0
42.732515865 72.0
42.737439721 72.0
42.742363577 72.0
42.747287433 69.0
42.752211290 67.0
42.757135146 66.0
42.762059002 74.0
42.766982858 65.0
42.771906714 49.0
42.776830570 59.0
42.781754426 70.0
42.786678282 78.0
42.791602138 74.0
42.796525994 55.0
42.801449850 71.0
42.806373706 79.0
42.811297562 53.0
42.816221418 73.0
42.821145274 69.0
42.826069130 68.0
42.830992986 54.0
42.835916842 59.0
42.840840698 60.0
42.845764554 46.0
42.850688410 59.0
42.855612266 58.0
42.860536122 78.0
42.865459978 58.0
42.870383834 62.0
42.875307690 70.0
42.880231546 63.0
42.885155402 69.0
42.890079258 54.0
42.895003114 72.0
42.899926970 61.0
42.904850826 57.0
42.909774682 61.0
42.914698538 70.0
42.919622394 58.0
42.924546250 66.0
42.929470106 52.0
42.934393962 54.0
42.939317818 63.0
42.944241674 69.0
42.949165530 51.0
42.954089386 58.0
42.959013242 75.0
42.963937098 61.0
42.968860954 74.0
42.973784810 77.0
42.978708666 56.0
42.983632522 58.0
42.988556378 68.0
42.993480234 68.0
42.998404090 63.0
43.003327946 55.0
43.008251802 60.0
43.013175658 62.0
43.018099514 68.0
43.023023370 62.0
43.027947226 70.0
43.032871082 50.0
43.037794938 64.0
43.042718794 61.0
43.047642650 61.0
43.052566506 65.0
43.057490362 73.0
43.062414218 79.0
43.067338074 65.0
43.072261930 58.0
43.077185786 58.0
43.082109642 66.0
43.087033498 61.0
43.091957354 62.0
43.096881210 43.0
43.101805066 56.0
43.106728922 70.0
43.111652778 59.0
43.116576634 71.0
43.121500490 53.0
43.126424346 77.0
43.131348202 69.0
43.136272058 61.0
43.141195914 73.0
43.146119770 66.0
43.151043626 74.0
43.155967482 62.0
43.160891338 60.0
43.165815194 69.0
43.170739050 51.0
43.175662906 69.0
43.180586762 62.0
43.185510618 60.0
43.190434474 61.0
43.195358330 72.0
43.200282186 60.0
43.205206042 54.0
43.210129898 57.0
43.215053754 53.0
43.219977610 74.0
43.224901466 54.0
43.229825322 54.0
43.234749178 53.0
43.239673034 58.0
43.244596890 56.0
43.249520747 62.0
43.254444603 82.0
43.259368459 68.0
43.264292315 67.0
43.269216171 63.0
43.274140027 61.0
43.279063883 67.0
43.283987739 63.0
43.288911595 61.0
43.293835451 68.0
43.298759307 63.0
43.303683163 69.0
43.308607019 58.0
43.313530875 56.0
43.318454731 59.0
43.323378587 65.0
43.328302443 70.0
43.333226299 70.0
43.338150155 54.0
43.343074011 67.0
43.347997867 62.0
43.352921723 54.0
43.357845579 65.0
43.362769435 55.0
43.367693291 60.0
43.372617147 61.0
43.377541003 64.0
43.382464859 63.0
43.387388715 68.0
43.392312571 53.0
43.397236427 53.0
43.402160283 62.0
43.407084139 53.0
43.412007995 62.0
43.416931851 55.0
43.421855707 55.0
43.426779563 61.0
43.431703419 71.0
43.436627275 65.0
43.441551131 62.0
43.446474987 50.0
43.451398843 83.0
43.456322699 61.0
43.461246555 60.0
43.466170411 69.0
43.471094267 58.0
43.476018123 68.0
43.480941979 69.0
43.485865835 68.0
43.490789691 65.0
43.495713547 56.0
43.500637403 70.0
43.505561259 54.0
43.510485115 58.0
43.515408971 59.0
43.520332827 53.0
43.525256683 73.0
43.530180539 54.0
43.535104395 63.0
43.540028251 60.0
43.544952107 69.0
43.549875963 64.0
43.554799819 61.0
43.559723675 68.0
43.564647531 56.0
43.569571387 61.0
43.574495243 57.0
43.579419099 69.0
43.584342955 61.0
43.589266811 67.0
43.594190667 69.0
43.599114523 70.0
43.604038379 74.0
43.608962235 70.0
43.613886091 53.0
43.618809947 54.0
43.623733803 61.0
43.628657659 55.0
43.633581515 67.0
43.638505371 72.0
43.643429227 54.0
43.648353083 54.0
43.653276939 62.0
43.658200795 70.0
43.663124651 70.0
43.668048507 57.0
43.672972363 69.0
43.677896219 73.0
43.682820075 48.0
43.687743931 68.0
43.692667787 58.0
43.697591643 83.0
43.702515499 65.0
43.707439355 43.0
43.712363211 68.0
43.717287067 51.0
43.722210923 80.0
43.727134779 70.0
43.732058635 63.0
43.736982491 89.0
43.741906347 63.0
43.746830203 60.0
43.751754060 61.0
43.756677916 58.0
43.761601772 67.0
43.766525628 71.0
43.771449484 68.0
43.776373340 61.0
43.781297196 64.0
43.786221052 81.0
43.791144908 63.0
43.796068764 64.0
43.800992620 83.0
43.805916476 75.0
43.810840332 47.0
43.815764188 83.0
43.820688044 44.0
43.825611900 56.0
43.830535756 63.0
43.835459612 58.0
43.840383468 62.0
43.845307324 91.0
43.850231180 50.0
43.855155036 60.0
43.860078892 51.0
43.865002748 76.0
43.869926604 56.0
43.874850460 61.0
43.879774316 72.0
43.884698172 62.0
43.889622028 48.0
43.894545884 56.0
43.899469740 64.0
43.904393596 57.0
43.909317452 78.0
43.914241308 62.0
43.919165164 61.0
43.924089020 58.0
43.929012876 54.0
43.933936732 77.0
43.938860588 70.0
43.943784444 75.0
43.948708300 68.0
43.953632156 77.0
43.958556012 76.0
43.963479868 79.0
43.968403724 69.0
43.973327580 81.0
43.978251436 51.0
43.983175292 79.0
43.988099148 75.0
43.993023004 80.0
43.997946860 71.0
44.002870716 56.0
44.007794572 51.0
44.012718428 89.0
44.017642284 65.0
44.022566140 68.0
44.027489996 51.0
44.032413852 70.0
44.037337708 81.0
44.042261564 65.0
44.047185420 79.0
44.052109276 63.0
44.057033132 67.0
44.061956988 79.0
44.066880844 73.0
44.071804700 65.0
44.076728556 72.0
44.081652412 64.0
44.086576268 75.0
44.091500124 74.0
44.096423980 77.0
44.101347836 80.0
44.106271692 67.0
44.111195548 90.0
44.116119404 67.0
44.121043260 89.0
44.125967116 70.0
44.130890972 75.0
44.135814828 59.0
44.140738684 79.0
44.145662540 75.0
44.150586396 75.0
44.155510252 71.0
44.160434108 65.0
44.165357964 72.0
44.170281820 95.0
44.175205676 81.0
44.180129532 80.0
44.185053388 84.0
44.189977244 83.0
44.194901100 87.0
44.199824956 77.0
44.204748812 76.0
44.209672668 70.0
44.214596524 87.0
44.219520380 94.0
44.224444236 101.0
44.229368092 95.0
44.234291948 103.0
44.239215804 96.0
44.244139660 104.0
44.249063517 87.0
44.253987373 109.0
44.258911229 93.0
44.263835085 95.0
44.268758941 93.0
44.273682797 108.0
44.278606653 114.0
44.283530509 98.0
44.288454365 99.0
44.293378221 103.0
44.298302077 120.0
44.303225933 101.0
44.308149789 109.0
44.313073645 93.0
44.317997501 102.0
44.322921357 121.0
44.327845213 136.0
44.332769069 136.0
44.337692925 125.0
44.342616781 128.0
44.347540637 119.0
44.352464493 117.0
44.357388349 105.0
44.362312205 140.0
44.367236061 127.0
44.372159917 152.0
44.377083773 138.0
44.382007629 125.0
44.386931485 118.0
44.391855341 124.0
44.396779197 139.0
44.401703053 137.0
44.406626909 133.0
44.411550765 138.0
44.416474621 130.0
44.421398477 127.0
44.426322333 116.0
44.431246189 138.0
44.436170045 139.0
44.441093901 128.0
44.446017757 125.0
44.450941613 147.0
44.455865469 124.0
44.460789325 112.0
44.465713181 129.0
44.470637037 143.0
44.475560893 111.0
44.480484749 141.0
44.485408605 139.0
44.490332461 114.0
44.495256317 138.0
44.500180173 106.0
44.505104029 117.0
44.510027885 112.0
44.514951741 93.0
44.519875597 107.0
44.524799453 102.0
44.529723309 103.0
44.534647165 95.0
44.539571021 117.0
44.544494877 99.0
44.549418733 108.0
44.554342589 91.0
44.559266445 102.0
44.564190301 95.0
44.569114157 90.0
44.574038013 87.0
44.578961869 94.0
44.583885725 98.0
44.588809581 93.0
44.593733437 87.0
44.598657293 96.0
44.603581149 89.0
44.608505005 95.0
44.613428861 104.0
44.618352717 85.0
44.623276573 103.0
44.628200429 85.0
44.633124285 83.0
44.638048141 74.0
44.642971997 92.0
44.647895853 85.0
44.652819709 79.0
44.657743565 97.0
44.662667421 89.0
44.667591277 62.0
44.672515133 90.0
44.677438989 72.0
44.682362845 79.0
44.687286701 62.0
44.692210557 71.0
44.697134413 60.0
44.702058269 67.0
44.706982125 79.0
44.711905981 85.0
44.716829837 82.0
44.721753693 90.0
44.726677549 76.0
44.731601405 73.0
44.736525261 70.0
44.741449117 70.0
44.746372973 78.0
44.751296830 90.0
44.756220686 46.0
44.761144542 69.0
44.766068398 65.0
44.770992254 91.0
44.775916110 75.0
44.780839966 76.0
44.785763822 76.0
44.790687678 70.0
44.795611534 53.0
44.800535390 84.0
44.805459246 65.0
44.810383102 64.0
44.815306958 75.0
44.820230814 70.0
44.825154670 70.0
44.830078526 71.0
44.835002382 78.0
44.839926238 61.0
44.844850094 69.0
44.849773950 71.0
44.854697806 81.0
44.859621662 81.0
44.864545518 68.0
44.869469374 74.0
44.874393230 72.0
44.879317086 65.0
44.884240942 58.0
44.889164798 53.0
44.894088654 69.0
44.899012510 73.0
44.903936366 83.0
44.908860222 59.0
44.913784078 59.0
44.918707934 58.0
44.923631790 60.0
44.928555646 71.0
44.933479502 53.0
44.938403358 85.0
44.943327214 62.0
44.948251070 59.0
44.953174926 65.0
44.958098782 63.0
44.963022638 61.0
44.967946494 59.0
44.972870350 51.0
44.977794206 64.0
44.982718062 67.0
44.987641918 51.0
44.992565774 62.0
44.997489630 60.0
