45.002461930 117.0
45.007385786 114.0
45.012309642 99.0
45.017233498 98.0
45.022157354 128.0
45.027081210 115.0
45.032005066 92.0
45.036928922 121.0
45.041852778 109.0
45.046776634 110.0
45.051700490 113.0
45.056624346 104.0
45.061548202 109.0
45.066472058 110.0
45.071395914 135.0
45.076319770 101.0
45.081243626 117.0
45.086167482 98.0
45.091091338 113.0
45.096015194 100.0
45.100939050 113.0
45.105862906 112.0
45.110786762 106.0
45.115710618 95.0
45.120634474 102.0
45.125558330 106.0
45.130482186 80.0
45.135406042 116.0
45.140329898 115.0
45.145253754 97.0
45.150177610 90.0
45.155101466 96.0
45.160025322 129.0
45.164949178 99.0
45.169873034 108.0
45.174796890 86.0
45.179720746 86.0
45.184644602 109.0
45.189568458 121.0
45.194492314 106.0
45.199416170 102.0
45.204340026 122.0
45.209263882 91.0
45.214187738 100.0
45.219111594 110.0
45.224035450 129.0
45.228959306 99.0
45.233883162 103.0
45.238807018 85.0
45.243730874 96.0
45.248654730 107.0
45.253578587 98.0
45.258502443 121.0
45.263426299 116.0
45.268350155 94.0
45.273274011 107.0
45.278197867 93.0
45.283121723 108.0
45.288045579 90.0
45.292969435 115.0
45.297893291 113.0
45.302817147 98.0
45.307741003 87.0
45.312664859 100.0
45.317588715 100.0
45.322512571 85.0
45.327436427 84.0
45.332360283 97.0
45.337284139 100.0
45.342207995 98.0
45.347131851 97.0
45.352055707 106.0
45.356979563 103.0
45.361903419 101.0
45.366827275 109.0
45.371751131 98.0
45.376674987 101.0
45.381598843 115.0
45.386522699 100.0
45.391446555 103.0
45.396370411 99.0
45.401294267 96.0
45.406218123 110.0
45.411141979 114.0
45.416065835 84.0
45.420989691 95.0
45.425913547 96.0
45.430837403 99.0
45.435761259 107.0
45.440685115 101.0
45.445608971 110.0
45.450532827 90.0
45.455456683 104.0
45.460380539 114.0
45.465304395 117.0
45.470228251 92.0
45.475152107 84.0
45.480075963 110.0
45.484999819 109.0
45.489923675 100.0
45.494847531 105.0
45.499771387 96.0
45.504695243 101.0
45.509619099 107.0
45.514542955 99.0
45.519466811 118.0
45.524390667 101.0
45.529314523 101.0
45.534238379 105.0
45.539162235 103.0
45.544086091 94.0
45.549009947 90.0
45.553933803 112.0
45.558857659 105.0
45.563781515 98.0
45.568705371 108.0
45.573629227 104.0
45.578553083 102.0
45.583476939 101.0
45.588400795 100.0
45.593324651 103.0
45.598248507 107.0
45.603172363 110.0
45.608096219 91.0
45.613020075 103.0
45.617943931 112.0
45.622867787 113.0
45.627791643 95.0
45.632715499 113.0
45.637639355 96.0
45.642563211 92.0
45.647487067 97.0
45.652410923 107.0
45.657334779 94.0
45.662258635 88.0
45.667182491 123.0
45.672106347 117.0
45.677030203 100.0
45.681954059 108.0
45.686877915 92.0
45.691801771 113.0
45.696725627 112.0
45.701649483 116.0
45.706573339 101.0
45.711497195 120.0
45.716421051 96.0
45.721344907 114.0
45.726268763 108.0
45.731192619 102.0
45.736116475 113.0
45.741040331 89.0
45.745964187 120.0
45.750888043 115.0
45.755811900 110.0
45.760735756 93.0
45.765659612 93.0
45.770583468 131.0
45.775507324 115.0
45.780431180 107.0
45.785355036 106.0
45.790278892 85.0
45.795202748 93.0
45.800126604 88.0
45.805050460 103.0
45.809974316 102.0
45.814898172 104.0
45.819822028 114.0
45.824745884 95.0
45.829669740 82.0
45.834593596 103.0
45.839517452 105.0
45.844441308 102.0
45.849365164 102.0
45.854289020 97.0
45.859212876 109.0
45.864136732 100.0
45.869060588 108.0
45.873984444 114.0
45.878908300 105.0
45.883832156 108.0
45.888756012 109.0
45.893679868 104.0
45.898603724 104.0
45.903527580 96.0
45.908451436 109.0
45.913375292 94.0
45.918299148 117.0
45.923223004 91.0
45.928146860 111.0
45.933070716 102.0
45.937994572 107.0
45.942918428 119.0
45.947842284 95.0
45.952766140 130.0
45.957689996 107.0
45.962613852 96.0
45.967537708 101.0
45.972461564 112.0
45.977385420 101.0
45.982309276 108.0
45.987233132 103.0
45.992156988 107.0
45.997080844 113.0
46.002004700 105.0
46.006928556 90.0
46.011852412 92.0
46.016776268 91.0
46.021700124 97.0
46.026623980 104.0
46.031547836 95.0
46.036471692 111.0
46.041395548 100.0
46.046319404 102.0
46.051243260 107.0
46.056167116 86.0
46.061090972 95.0
46.066014828 102.0
46.070938684 96.0
46.075862540 106.0
46.080786396 95.0
46.085710252 99.0
46.090634108 104.0
46.095557964 104.0
46.100481820 110.0
46.105405676 75.0
46.110329532 80.0
46.115253388 106.0
46.120177244 90.0
46.125101100 92.0
46.130024956 97.0
46.134948812 88.0
46.139872668 97.0
46.144796524 105.0
46.149720380 114.0
46.154644236 96.0
46.159568092 103.0
46.164491948 99.0
46.169415804 108.0
46.174339660 106.0
46.179263516 100.0
46.184187372 91.0
46.189111228 116.0
46.194035084 107.0
46.198958940 113.0
46.203882796 93.0
46.208806652 106.0
46.213730508 106.0
46.218654364 104.0
46.223578220 115.0
46.228502076 102.0
46.233425932 115.0
46.238349788 93.0
46.243273644 119.0
46.248197500 109.0
46.253121357 89.0
46.258045213 110.0
46.262969069 107.0
46.267892925 96.0
46.272816781 87.0
46.277740637 100.0
46.282664493 103.0
46.287588349 96.0
46.292512205 108.0
46.297436061 104.0
46.302359917 92.0
46.307283773 97.0
46.312207629 95.0
46.317131485 102.0
46.322055341 92.0
46.326979197 111.0
46.331903053 110.0
46.336826909 107.0
46.341750765 103.0
46.346674621 94.0
46.351598477 102.0
46.356522333 100.0
46.361446189 104.0
46.366370045 100.0
46.371293901 86.0
46.376217757 101.0
46.381141613 107.0
46.386065469 89.0
46.390989325 107.0
46.395913181 109.0
46.400837037 102.0
46.405760893 104.0
46.410684749 103.0
46.415608605 110.0
46.420532461 108.0
46.425456317 103.0
46.430380173 121.0
46.435304029 107.0
46.440227885 109.0
46.445151741 124.0
46.450075597 107.0
46.454999453 101.0
46.459923309 87.0
46.464847165 118.0
46.469771021 105.0
46.474694877 120.0
46.479618733 98.0
46.484542589 111.0
46.489466445 117.0
46.494390301 116.0
46.499314157 107.0
46.504238013 121.0
46.509161869 94.0
46.514085725 113.0
46.519009581 111.0
46.523933437 110.0
46.528857293 109.0
46.533781149 97.0
46.538705005 103.0
46.543628861 102.0
46.548552717 92.0
46.553476573 123.0
46.558400429 113.0
46.563324285 110.0
46.568248141 114.0
46.573171997 90.0
46.578095853 115.0
46.583019709 108.0
46.587943565 83.0
46.592867421 105.0
46.597791277 99.0
46.602715133 93.0
46.607638989 104.0
46.612562845 95.0
46.617486701 124.0
46.622410557 120.0
46.627334413 94.0
46.632258269 119.0
46.637182125 87.0
46.642105981 101.0
46.647029837 116.0
46.651953693 117.0
46.656877549 114.0
46.661801405 95.0
46.666725261 111.0
46.671649117 104.0
46.676572973 108.0
46.681496829 89.0
46.686420685 130.0
46.691344541 111.0
46.696268397 116.0
46.701192253 122.0
46.706116109 121.0
46.711039965 128.0
46.715963821 113.0
46.720887677 93.0
46.725811533 100.0
46.730735389 128.0
46.735659245 130.0
46.740583101 113.0
46.745506957 138.0
46.750430813 134.0
46.755354670 122.0
46.760278526 114.0
46.765202382 122.0
46.770126238 129.0
46.775050094 135.0
46.779973950 122.0
46.784897806 104.0
46.789821662 127.0
46.794745518 114.0
46.799669374 122.0
46.804593230 132.0
46.809517086 107.0
46.814440942 115.0
46.819364798 113.0
46.824288654 119.0
46.829212510 111.0
46.834136366 102.0
46.839060222 126.0
46.843984078 108.0
46.848907934 116.0
46.853831790 127.0
46.858755646 117.0
46.863679502 134.0
46.868603358 111.0
46.873527214 132.0
46.878451070 110.0
46.883374926 120.0
46.888298782 118.0
46.893222638 115.0
46.898146494 115.0
46.903070350 115.0
46.907994206 126.0
46.912918062 125.0
46.917841918 120.0
46.922765774 119.0
46.927689630 114.0
46.932613486 136.0
46.937537342 133.0
46.942461198 134.0
46.947385054 108.0
46.952308910 119.0
46.957232766 133.0
46.962156622 131.0
46.967080478 127.0
46.972004334 113.0
46.976928190 135.0
46.981852046 137.0
46.986775902 148.0
46.991699758 154.0
46.996623614 149.0
47.001547470 139.0
47.006471326 155.0
47.011395182 168.0
47.016319038 175.0
47.021242894 191.0
47.026166750 195.0
47.031090606 195.0
47.036014462 221.0
47.040938318 256.0
47.045862174 324.0
47.050786030 333.0
47.055709886 394.0
47.060633742 494.0
47.065557598 573.0
47.070481454 728.0
47.075405310 855.0
47.080329166 991.0
47.085253022 1165.0
47.090176878 1383.0
47.095100734 1578.0
47.100024590 1719.0
47.104948446 1662.0
47.109872302 1910.0
47.114796158 1877.0
47.119720014 1838.0
47.124643870 1818.0
47.129567726 1671.0
47.134491582 1554.0
47.139415438 1415.0
47.144339294 1273.0
47.149263150 1037.0
47.154187006 912.0
47.159110862 700.0
47.164034718 608.0
47.168958574 509.0
47.173882430 479.0
47.178806286 428.0
47.183730142 422.0
47.188653998 350.0
47.193577854 291.0
47.198501710 271.0
47.203425566 274.0
47.208349422 263.0
47.213273278 208.0
47.218197134 208.0
47.223120990 178.0
47.228044846 180.0
47.232968702 176.0
47.237892558 183.0
47.242816414 162.0
47.247740270 167.0
47.252664127 167.0
47.257587983 163.0
47.262511839 153.0
47.267435695 153.0
47.272359551 159.0
47.277283407 140.0
47.282207263 137.0
47.287131119 156.0
47.292054975 173.0
47.296978831 136.0
47.301902687 143.0
47.306826543 144.0
47.311750399 163.0
47.316674255 131.0
47.321598111 140.0
47.326521967 124.0
47.331445823 147.0
47.336369679 127.0
47.341293535 136.0
47.346217391 135.0
47.351141247 147.0
47.356065103 116.0
47.360988959 142.0
47.365912815 145.0
47.370836671 120.0
47.375760527 135.0
47.380684383 144.0
47.385608239 125.0
47.390532095 140.0
47.395455951 134.0
47.400379807 116.0
47.405303663 121.0
47.410227519 130.0
47.415151375 121.0
47.420075231 131.0
47.424999087 121.0
47.429922943 125.0
47.434846799 117.0
47.439770655 130.0
47.444694511 104.0
47.449618367 129.0
47.454542223 124.0
47.459466079 136.0
47.464389935 101.0
47.469313791 114.0
47.474237647 106.0
47.479161503 131.0
47.484085359 135.0
47.489009215 131.0
47.493933071 133.0
47.498856927 142.0
47.503780783 118.0
47.508704639 133.0
47.513628495 147.0
47.518552351 105.0
47.523476207 107.0
47.528400063 119.0
47.533323919 130.0
47.538247775 135.0
47.543171631 131.0
47.548095487 130.0
47.553019343 129.0
47.557943199 103.0
47.562867055 137.0
47.567790911 130.0
47.572714767 121.0
47.577638623 127.0
47.582562479 127.0
47.587486335 120.0
47.592410191 127.0
47.597334047 113.0
47.602257903 126.0
47.607181759 141.0
47.612105615 134.0
47.617029471 117.0
47.621953327 130.0
47.626877183 109.0
47.631801039 116.0
47.636724895 117.0
47.641648751 111.0
47.646572607 117.0
47.651496463 138.0
47.656420319 135.0
47.661344175 104.0
47.666268031 128.0
47.671191887 142.0
47.676115743 121.0
47.681039599 131.0
47.685963455 137.0
47.690887311 113.0
47.695811167 99.0
47.700735023 133.0
47.705658879 106.0
47.710582735 112.0
47.715506591 111.0
47.720430447 119.0
47.725354303 118.0
47.730278159 134.0
47.735202015 114.0
47.740125871 121.0
47.745049727 110.0
47.749973583 123.0
47.754897440 122.0
47.759821296 140.0
47.764745152 122.0
47.769669008 127.0
47.774592864 123.0
47.779516720 122.0
47.784440576 116.0
47.789364432 107.0
47.794288288 129.0
47.799212144 120.0
47.804136000 106.0
47.809059856 107.0
47.813983712 117.0
47.818907568 133.0
47.823831424 129.0
47.828755280 143.0
47.833679136 147.0
47.838602992 106.0
47.843526848 120.0
47.848450704 138.0
47.853374560 120.0
47.858298416 125.0
47.863222272 122.0
47.868146128 107.0
47.873069984 116.0
47.877993840 133.0
47.882917696 135.0
47.887841552 125.0
47.892765408 112.0
47.897689264 112.0
47.902613120 125.0
47.907536976 112.0
47.912460832 126.0
47.917384688 117.0
47.922308544 125.0
47.927232400 114.0
47.932156256 107.0
47.937080112 113.0
47.942003968 123.0
47.946927824 128.0
47.951851680 129.0
47.956775536 114.0
47.961699392 136.0
47.966623248 121.0
47.971547104 105.0
47.976470960 128.0
47.981394816 121.0
47.986318672 112.0
47.991242528 120.0
47.996166384 138.0
48.001090240 133.0
48.006014096 122.0
48.010937952 122.0
48.015861808 124.0
48.020785664 131.0
48.025709520 131.0
48.030633376 116.0
48.035557232 124.0
48.040481088 102.0
48.045404944 140.0
48.050328800 120.0
48.055252656 114.0
48.060176512 115.0
48.065100368 125.0
48.070024224 123.0
48.074948080 124.0
48.079871936 131.0
48.084795792 136.0
48.089719648 104.0
48.094643504 132.0
48.099567360 119.0
48.104491216 125.0
48.109415072 118.0
48.114338928 127.0
48.119262784 117.0
48.124186640 116.0
48.129110496 123.0
48.134034352 139.0
48.138958208 124.0
48.143882064 126.0
48.148805920 131.0
48.153729776 120.0
48.158653632 127.0
48.163577488 141.0
48.168501344 117.0
48.173425200 128.0
48.178349056 125.0
48.183272912 125.0
48.188196768 136.0
48.193120624 124.0
48.198044480 140.0
48.202968336 111.0
48.207892192 129.0
48.212816048 130.0
48.217739904 117.0
48.222663760 129.0
48.227587616 133.0
48.232511472 140.0
48.237435328 110.0
48.242359184 118.0
48.247283040 129.0
48.252206897 120.0
48.257130753 129.0
48.262054609 134.0
48.266978465 110.0
48.271902321 129.0
48.276826177 123.0
48.281750033 131.0
48.286673889 140.0
48.291597745 127.0
48.296521601 123.0
48.301445457 117.0
48.306369313 130.0
48.311293169 122.0
48.316217025 112.0
48.321140881 122.0
48.326064737 124.0
48.330988593 132.0
48.335912449 129.0
48.340836305 144.0
48.345760161 130.0
48.350684017 116.0
48.355607873 126.0
48.360531729 125.0
48.365455585 131.0
48.370379441 136.0
48.375303297 130.0
48.380227153 139.0
48.385151009 145.0
48.390074865 130.0
48.394998721 129.0
48.399922577 121.0
48.404846433 126.0
48.409770289 131.0
48.414694145 127.0
48.419618001 146.0
48.424541857 133.0
48.429465713 119.0
48.434389569 114.0
48.439313425 125.0
48.444237281 138.0
48.449161137 126.0
48.454084993 140.0
48.459008849 139.0
48.463932705 129.0
48.468856561 154.0
48.473780417 128.0
48.478704273 149.0
48.483628129 134.0
48.488551985 127.0
48.493475841 113.0
48.498399697 147.0
48.503323553 109.0
48.508247409 138.0
48.513171265 122.0
48.518095121 133.0
48.523018977 155.0
48.527942833 129.0
48.532866689 124.0
48.537790545 125.0
48.542714401 108.0
48.547638257 143.0
48.552562113 128.0
48.557485969 129.0
48.562409825 150.0
48.567333681 126.0
48.572257537 152.0
48.577181393 147.0
48.582105249 131.0
48.587029105 95.0
48.591952961 137.0
48.596876817 121.0
48.601800673 135.0
48.606724529 125.0
48.611648385 149.0
48.616572241 158.0
48.621496097 137.0
48.626419953 137.0
48.631343809 163.0
48.636267665 153.0
48.641191521 154.0
48.646115377 117.0
48.651039233 126.0
48.655963089 147.0
48.660886945 135.0
48.665810801 147.0
48.670734657 130.0
48.675658513 131.0
48.680582369 125.0
48.685506225 132.0
48.690430081 159.0
48.695353937 130.0
48.700277793 145.0
48.705201649 109.0
48.710125505 135.0
48.715049361 116.0
48.719973217 159.0
48.724897073 134.0
48.729820929 126.0
48.734744785 144.0
48.739668641 134.0
48.744592497 138.0
48.749516353 132.0
48.754440210 132.0
48.759364066 141.0
48.764287922 146.0
48.769211778 175.0
48.774135634 157.0
48.779059490 137.0
48.783983346 165.0
48.788907202 142.0
48.793831058 145.0
48.798754914 121.0
48.803678770 135.0
48.808602626 138.0
48.813526482 124.0
48.818450338 137.0
48.823374194 135.0
48.828298050 120.0
48.833221906 113.0
48.838145762 137.0
48.843069618 151.0
48.847993474 153.0
48.852917330 132.0
48.857841186 120.0
48.862765042 145.0
48.867688898 139.0
48.872612754 150.0
48.877536610 155.0
48.882460466 170.0
48.887384322 122.0
48.892308178 129.0
48.897232034 135.0
48.902155890 165.0
48.907079746 142.0
48.912003602 147.0
48.916927458 173.0
48.921851314 158.0
48.926775170 141.0
48.931699026 146.0
48.936622882 149.0
48.941546738 147.0
48.946470594 148.0
48.951394450 161.0
48.956318306 152.0
48.961242162 152.0
48.966166018 157.0
48.971089874 161.0
48.976013730 135.0
48.980937586 141.0
48.985861442 154.0
48.990785298 182.0
48.995709154 163.0
49.000633010 160.0
49.005556866 159.0
49.010480722 151.0
49.015404578 151.0
49.020328434 151.0
49.025252290 166.0
49.030176146 168.0
49.035100002 175.0
49.040023858 178.0
49.044947714 158.0
49.049871570 155.0
49.054795426 159.0
49.059719282 170.0
49.064643138 153.0
49.069566994 160.0
49.074490850 160.0
49.079414706 165.0
49.084338562 172.0
49.089262418 189.0
49.094186274 162.0
49.099110130 148.0
49.104033986 161.0
49.108957842 163.0
49.113881698 171.0
49.118805554 181.0
49.123729410 148.0
49.128653266 194.0
49.133577122 199.0
49.138500978 156.0
49.143424834 186.0
49.148348690 185.0
49.153272546 182.0
49.158196402 188.0
49.163120258 178.0
49.168044114 195.0
49.172967970 180.0
49.177891826 186.0
49.182815682 168.0
49.187739538 207.0
49.192663394 155.0
49.197587250 185.0
49.202511106 194.0
49.207434962 158.0
49.212358818 188.0
49.217282674 176.0
49.222206530 189.0
49.227130386 189.0
49.232054242 189.0
49.236978098 172.0
49.241901954 182.0
49.246825810 209.0
49.251749667 190.0
49.256673523 210.0
49.261597379 223.0
49.266521235 208.0
49.271445091 198.0
49.276368947 184.0
49.281292803 197.0
49.286216659 215.0
49.291140515 197.0
49.296064371 210.0
49.300988227 222.0
49.305912083 216.0
49.310835939 207.0
49.315759795 227.0
49.320683651 198.0
49.325607507 208.0
49.330531363 202.0
49.335455219 215.0
49.340379075 200.0
49.345302931 217.0
49.350226787 198.0
49.355150643 243.0
49.360074499 221.0
49.364998355 220.0
49.369922211 236.0
49.374846067 244.0
49.379769923 233.0
49.384693779 213.0
49.389617635 238.0
49.394541491 212.0
49.399465347 242.0
49.404389203 244.0
49.409313059 222.0
49.414236915 236.0
49.419160771 244.0
49.424084627 265.0
49.429008483 303.0
49.433932339 235.0
49.438856195 242.0
49.443780051 268.0
49.448703907 259.0
49.453627763 270.0
49.458551619 269.0
49.463475475 277.0
49.468399331 280.0
49.473323187 269.0
49.478247043 266.0
49.483170899 290.0
49.488094755 298.0
49.493018611 315.0
49.497942467 336.0
49.502866323 279.0
49.507790179 311.0
49.512714035 324.0
49.517637891 314.0
49.522561747 338.0
49.527485603 327.0
49.532409459 294.0
49.537333315 319.0
49.542257171 326.0
49.547181027 336.0
49.552104883 330.0
49.557028739 386.0
49.561952595 362.0
49.566876451 382.0
49.571800307 390.0
49.576724163 384.0
49.581648019 394.0
49.586571875 394.0
49.591495731 384.0
49.596419587 410.0
49.601343443 409.0
49.606267299 404.0
49.611191155 402.0
49.616115011 438.0
49.621038867 475.0
49.625962723 473.0
49.630886579 506.0
49.635810435 478.0
49.640734291 442.0
49.645658147 479.0
49.650582003 501.0
49.655505859 491.0
49.660429715 514.0
49.665353571 513.0
49.670277427 507.0
49.675201283 541.0
49.680125139 579.0
49.685048995 592.0
49.689972851 571.0
49.694896707 582.0
49.699820563 566.0
49.704744419 584.0
49.709668275 591.0
49.714592131 565.0
49.719515987 660.0
49.724439843 638.0
49.729363699 722.0
49.734287555 719.0
49.739211411 705.0
49.744135267 715.0
49.749059123 761.0
49.753982980 825.0
49.758906836 763.0
49.763830692 788.0
49.768754548 850.0
49.773678404 868.0
49.778602260 900.0
49.783526116 906.0
49.788449972 972.0
49.793373828 954.0
49.798297684 915.0
49.803221540 1015.0
49.808145396 1006.0
49.813069252 1042.0
49.817993108 1099.0
49.822916964 1133.0
49.827840820 1126.0
49.832764676 1189.0
49.837688532 1246.0
49.842612388 1237.0
49.847536244 1317.0
49.852460100 1418.0
49.857383956 1447.0
49.862307812 1426.0
49.867231668 1463.0
49.872155524 1605.0
49.877079380 1637.0
49.882003236 1711.0
49.886927092 1720.0
49.891850948 1785.0
49.896774804 1820.0
49.901698660 1873.0
49.906622516 1980.0
49.911546372 2006.0
49.916470228 2057.0
49.921394084 2076.0
49.926317940 2173.0
49.931241796 2223.0
49.936165652 2176.0
49.941089508 2310.0
49.946013364 2441.0
49.950937220 2488.0
49.955861076 2488.0
49.960784932 2604.0
49.965708788 2616.0
49.970632644 2572.0
49.975556500 2690.0
49.980480356 2730.0
49.985404212 2685.0
49.990328068 2798.0
49.995251924 2862.0
50.000175780 2819.0
50.005099636 2831.0
50.010023492 2863.0
50.014947348 2997.0
50.019871204 2909.0
50.024795060 2897.0
50.029718916 2979.0
50.034642772 2937.0
50.039566628 2918.0
50.044490484 2927.0
50.049414340 2979.0
50.054338196 2956.0
50.059262052 2951.0
50.064185908 2897.0
50.069109764 2960.0
50.074033620 2879.0
50.078957476 2812.0
50.083881332 2880.0
50.088805188 2823.0
50.093729044 2807.0
50.098652900 2759.0
50.103576756 2713.0
50.108500612 2625.0
50.113424468 2663.0
50.118348324 2586.0
50.123272180 2587.0
50.128196036 2600.0
50.133119892 2628.0
50.138043748 2414.0
50.142967604 2425.0
50.147891460 2443.0
50.152815316 2366.0
50.157739172 2318.0
50.162663028 2203.0
50.167586884 2152.0
50.172510740 2067.0
50.177434596 2183.0
50.182358452 1996.0
50.187282308 1997.0
50.192206164 1858.0
50.197130020 1908.0
50.202053876 1892.0
50.206977732 1799.0
50.211901588 1751.0
50.216825444 1731.0
50.221749300 1672.0
50.226673156 1662.0
50.231597012 1548.0
50.236520868 1500.0
50.241444724 1424.0
50.246368580 1461.0
50.251292437 1422.0
50.256216293 1379.0
50.261140149 1267.0
50.266064005 1317.0
50.270987861 1291.0
50.275911717 1174.0
50.280835573 1162.0
50.285759429 1161.0
50.290683285 1053.0
50.295607141 1078.0
50.300530997 1067.0
50.305454853 1003.0
50.310378709 953.0
50.315302565 1004.0
50.320226421 977.0
50.325150277 948.0
50.330074133 872.0
50.334997989 873.0
50.339921845 835.0
50.344845701 797.0
50.349769557 841.0
50.354693413 776.0
50.359617269 755.0
50.364541125 706.0
50.369464981 685.0
50.374388837 717.0
50.379312693 722.0
50.384236549 663.0
50.389160405 616.0
50.394084261 651.0
50.399008117 630.0
50.403931973 583.0
50.408855829 588.0
50.413779685 604.0
50.418703541 576.0
50.423627397 610.0
50.428551253 540.0
50.433475109 521.0
50.438398965 485.0
50.443322821 517.0
50.448246677 458.0
50.453170533 459.0
50.458094389 470.0
50.463018245 518.0
50.467942101 479.0
50.472865957 429.0
50.477789813 442.0
50.482713669 443.0
50.487637525 461.0
50.492561381 447.0
50.497485237 436.0
50.502409093 458.0
50.507332949 400.0
50.512256805 417.0
50.517180661 402.0
50.522104517 388.0
50.527028373 428.0
50.531952229 402.0
50.536876085 395.0
50.541799941 380.0
50.546723797 392.0
50.551647653 380.0
50.556571509 365.0
50.561495365 384.0
50.566419221 357.0
50.571343077 344.0
50.576266933 363.0
50.581190789 351.0
50.586114645 350.0
50.591038501 361.0
50.595962357 363.0
50.600886213 348.0
50.605810069 354.0
50.610733925 340.0
50.615657781 342.0
50.620581637 304.0
50.625505493 332.0
50.630429349 310.0
50.635353205 302.0
50.640277061 298.0
50.645200917 291.0
50.650124773 304.0
50.655048629 306.0
50.659972485 325.0
50.664896341 318.0
50.669820197 290.0
50.674744053 302.0
50.679667909 301.0
50.684591765 320.0
50.689515621 297.0
50.694439477 321.0
50.699363333 308.0
50.704287189 297.0
50.709211045 314.0
50.714134901 313.0
50.719058757 306.0
50.723982613 333.0
50.728906469 279.0
50.733830325 282.0
50.738754181 303.0
50.743678037 288.0
50.748601893 302.0
50.753525750 299.0
50.758449606 301.0
50.763373462 291.0
50.768297318 286.0
50.773221174 260.0
50.778145030 285.0
50.783068886 301.0
50.787992742 279.0
50.792916598 227.0
50.797840454 280.0
50.802764310 286.0
50.807688166 299.0
50.812612022 270.0
50.817535878 275.0
50.822459734 297.0
50.827383590 279.0
50.832307446 258.0
50.837231302 281.0
50.842155158 273.0
50.847079014 258.0
50.852002870 295.0
50.856926726 288.0
50.861850582 313.0
50.866774438 292.0
50.871698294 284.0
50.876622150 258.0
50.881546006 311.0
50.886469862 286.0
50.891393718 302.0
50.896317574 278.0
50.901241430 325.0
50.906165286 294.0
50.911089142 269.0
50.916012998 289.0
50.920936854 300.0
50.925860710 271.0
50.930784566 295.0
50.935708422 257.0
50.940632278 292.0
50.945556134 278.0
50.950479990 298.0
50.955403846 289.0
50.960327702 297.0
50.965251558 310.0
50.970175414 284.0
50.975099270 304.0
50.980023126 326.0
50.984946982 323.0
50.989870838 309.0
50.994794694 284.0
50.999718550 301.0
51.004642406 317.0
51.009566262 307.0
51.014490118 338.0
51.019413974 325.0
51.024337830 300.0
51.029261686 338.0
51.034185542 352.0
51.039109398 324.0
51.044033254 321.0
51.048957110 327.0
51.053880966 322.0
51.058804822 340.0
51.063728678 321.0
51.068652534 312.0
51.073576390 309.0
51.078500246 302.0
51.083424102 313.0
51.088347958 315.0
51.093271814 371.0
51.098195670 328.0
51.103119526 382.0
51.108043382 371.0
51.112967238 328.0
51.117891094 302.0
51.122814950 339.0
51.127738806 352.0
51.132662662 344.0
51.137586518 353.0
51.142510374 370.0
51.147434230 346.0
51.152358086 329.0
51.157281942 374.0
51.162205798 355.0
51.167129654 360.0
51.172053510 378.0
51.176977366 369.0
51.181901222 405.0
51.186825078 377.0
51.191748934 379.0
51.196672790 354.0
51.201596646 383.0
51.206520502 399.0
51.211444358 335.0
51.216368214 378.0
51.221292070 393.0
51.226215926 392.0
51.231139782 364.0
51.236063638 396.0
51.240987494 405.0
51.245911350 365.0
51.250835207 406.0
51.255759063 390.0
51.260682919 393.0
51.265606775 418.0
51.270530631 416.0
51.275454487 388.0
51.280378343 450.0
51.285302199 386.0
51.290226055 438.0
51.295149911 421.0
51.300073767 396.0
51.304997623 416.0
51.309921479 409.0
51.314845335 413.0
51.319769191 441.0
51.324693047 428.0
51.329616903 417.0
51.334540759 429.0
51.339464615 448.0
51.344388471 443.0
51.349312327 415.0
51.354236183 442.0
51.359160039 422.0
51.364083895 459.0
51.369007751 446.0
51.373931607 483.0
51.378855463 480.0
51.383779319 508.0
51.388703175 444.0
51.393627031 448.0
51.398550887 460.0
51.403474743 471.0
51.408398599 464.0
51.413322455 451.0
51.418246311 494.0
51.423170167 454.0
51.428094023 518.0
51.433017879 494.0
51.437941735 512.0
51.442865591 503.0
51.447789447 494.0
51.452713303 481.0
51.457637159 513.0
51.462561015 443.0
51.467484871 512.0
51.472408727 533.0
51.477332583 491.0
51.482256439 466.0
51.487180295 521.0
51.492104151 501.0
51.497028007 471.0
51.501951863 516.0
51.506875719 500.0
51.511799575 501.0
51.516723431 517.0
51.521647287 535.0
51.526571143 501.0
51.531494999 532.0
51.536418855 565.0
51.541342711 532.0
51.546266567 533.0
51.551190423 572.0
51.556114279 552.0
51.561038135 552.0
51.565961991 575.0
51.570885847 557.0
51.575809703 551.0
51.580733559 618.0
51.585657415 587.0
51.590581271 624.0
51.595505127 573.0
51.600428983 596.0
51.605352839 601.0
51.610276695 607.0
51.615200551 595.0
51.620124407 577.0
51.625048263 627.0
51.629972119 595.0
51.634895975 590.0
51.639819831 618.0
51.644743687 590.0
51.649667543 577.0
51.654591399 658.0
51.659515255 618.0
51.664439111 586.0
51.669362967 609.0
51.674286823 621.0
51.679210679 666.0
51.684134535 638.0
51.689058391 682.0
51.693982247 636.0
51.698906103 671.0
51.703829959 628.0
51.708753815 706.0
51.713677671 657.0
51.718601527 646.0
51.723525383 652.0
51.728449239 664.0
51.733373095 715.0
51.738296951 681.0
51.743220807 673.0
51.748144663 686.0
51.753068520 728.0
51.757992376 677.0
51.762916232 731.0
51.767840088 710.0
51.772763944 734.0
51.777687800 703.0
51.782611656 707.0
51.787535512 737.0
51.792459368 716.0
51.797383224 788.0
51.802307080 801.0
51.807230936 729.0
51.812154792 810.0
51.817078648 759.0
51.822002504 713.0
51.826926360 710.0
51.831850216 815.0
51.836774072 856.0
51.841697928 823.0
51.846621784 779.0
51.851545640 841.0
51.856469496 855.0
51.861393352 792.0
51.866317208 817.0
51.871241064 856.0
51.876164920 858.0
51.881088776 822.0
51.886012632 829.0
51.890936488 880.0
51.895860344 833.0
51.900784200 884.0
51.905708056 933.0
51.910631912 878.0
51.915555768 918.0
51.920479624 902.0
51.925403480 934.0
51.930327336 911.0
51.935251192 898.0
51.940175048 916.0
51.945098904 953.0
51.950022760 922.0
51.954946616 1008.0
51.959870472 894.0
51.964794328 1011.0
51.969718184 982.0
51.974642040 1004.0
51.979565896 1017.0
51.984489752 1040.0
51.989413608 1045.0
51.994337464 1035.0
51.999261320 1029.0
52.004185176 1062.0
52.009109032 1053.0
52.014032888 1094.0
52.018956744 1122.0
52.023880600 1138.0
52.028804456 1091.0
52.033728312 1161.0
52.038652168 1083.0
52.043576024 1126.0
52.048499880 1214.0
52.053423736 1246.0
52.058347592 1299.0
52.063271448 1182.0
52.068195304 1279.0
52.073119160 1262.0
52.078043016 1335.0
52.082966872 1263.0
52.087890728 1392.0
52.092814584 1443.0
52.097738440 1426.0
52.102662296 1473.0
52.107586152 1490.0
52.112510008 1493.0
52.117433864 1509.0
52.122357720 1570.0
52.127281576 1659.0
52.132205432 1669.0
52.137129288 1705.0
52.142053144 1706.0
52.146977000 1699.0
52.151900856 1809.0
52.156824712 1915.0
52.161748568 1899.0
52.166672424 2009.0
52.171596280 2106.0
52.176520136 2181.0
52.181443992 2316.0
52.186367848 2394.0
52.191291704 2448.0
52.196215560 2668.0
52.201139416 2904.0
52.206063272 3121.0
52.210987128 3332.0
52.215910984 3462.0
52.220834840 3655.0
52.225758696 3964.0
52.230682552 4172.0
52.235606408 4415.0
52.240530264 4764.0
52.245454120 4872.0
52.250377977 5099.0
52.255301833 5297.0
52.260225689 5419.0
52.265149545 5453.0
52.270073401 5427.0
52.274997257 5610.0
52.279921113 5744.0
52.284844969 5764.0
52.289768825 5642.0
52.294692681 5641.0
52.299616537 5518.0
52.304540393 5569.0
52.309464249 5585.0
52.314388105 5482.0
52.319311961 5598.0
52.324235817 5501.0
52.329159673 5457.0
52.334083529 5548.0
52.339007385 5725.0
52.343931241 5834.0
52.348855097 6070.0
52.353778953 6145.0
52.358702809 6623.0
52.363626665 6871.0
52.368550521 7073.0
52.373474377 7524.0
52.378398233 8334.0
52.383322089 8853.0
52.388245945 9385.0
52.393169801 10265.0
52.398093657 11138.0
52.403017513 12039.0
52.407941369 13485.0
52.412865225 14967.0
52.417789081 16790.0
52.422712937 19047.0
52.427636793 21761.0
52.432560649 25359.0
52.437484505 29770.0
52.442408361 35755.0
52.447332217 43935.0
52.452256073 55548.0
52.457179929 74524.0
52.462103785 102706.0
52.467027641 149203.0
52.471951497 216744.0
52.476875353 293278.0
52.481799209 360451.0
52.486723065 407346.0
52.491646921 436799.0
52.496570777 456654.0
52.501494633 470537.0
52.506418489 475322.0
52.511342345 473488.0
52.516266201 462512.0
52.521190057 441508.0
52.526113913 397633.0
52.531037769 329860.0
52.535961625 248271.0
52.540885481 178491.0
52.545809337 129941.0
52.550733193 96528.0
52.555657049 74260.0
52.560580905 59435.0
52.565504761 48908.0
52.570428617 43121.0
52.575352473 38881.0
52.580276329 37676.0
52.585200185 38306.0
52.590124041 41015.0
52.595047897 46732.0
52.599971753 57731.0
52.604895609 74338.0
52.609819465 100514.0
52.614743321 132118.0
52.619667177 163826.0
52.624591033 191985.0
52.629514889 211231.0
52.634438745 225800.0
52.639362601 234058.0
52.644286457 236378.0
52.649210313 237715.0
52.654134169 231898.0
52.659058025 223053.0
52.663981881 206160.0
52.668905737 180296.0
52.673829593 147027.0
52.678753449 112748.0
52.683677305 84054.0
52.688601161 62014.0
52.693525017 46007.0
52.698448873 35812.0
52.703372729 28435.0
52.708296585 22828.0
52.713220441 18990.0
52.718144297 16165.0
52.723068153 14378.0
52.727992009 12499.0
52.732915865 11097.0
52.737839721 10151.0
52.742763577 9253.0
52.747687433 8519.0
52.752611290 7892.0
52.757535146 7281.0
52.762459002 6886.0
52.767382858 6353.0
52.772306714 6116.0
52.777230570 5542.0
52.782154426 5393.0
52.787078282 5042.0
52.792002138 4884.0
52.796925994 4691.0
52.801849850 4353.0
52.806773706 4276.0
52.811697562 3939.0
52.816621418 3819.0
52.821545274 3735.0
52.826469130 3606.0
52.831392986 3372.0
52.836316842 3262.0
52.841240698 3213.0
52.846164554 3033.0
52.851088410 3032.0
52.856012266 2834.0
52.860936122 2738.0
52.865859978 2657.0
52.870783834 2533.0
52.875707690 2481.0
52.880631546 2344.0
52.885555402 2331.0
52.890479258 2352.0
52.895403114 2184.0
52.900326970 2114.0
52.905250826 2094.0
52.910174682 2094.0
52.915098538 1979.0
52.920022394 1959.0
52.924946250 1828.0
52.929870106 1824.0
52.934793962 1852.0
52.939717818 1680.0
52.944641674 1741.0
52.949565530 1670.0
52.954489386 1647.0
52.959413242 1614.0
52.964337098 1547.0
52.969260954 1531.0
52.974184810 1488.0
52.979108666 1507.0
52.984032522 1453.0
52.988956378 1414.0
52.993880234 1380.0
52.998804090 1406.0
53.003727946 1351.0
53.008651802 1301.0
53.013575658 1286.0
53.018499514 1267.0
53.023423370 1267.0
53.028347226 1126.0
53.033271082 1195.0
53.038194938 1224.0
53.043118794 1203.0
53.048042650 1153.0
53.052966506 1124.0
53.057890362 1124.0
53.062814218 1063.0
53.067738074 1088.0
53.072661930 1044.0
53.077585786 1075.0
53.082509642 1010.0
53.087433498 1008.0
53.092357354 1019.0
53.097281210 1050.0
53.102205066 982.0
53.107128922 964.0
53.112052778 1015.0
53.116976634 986.0
53.121900490 925.0
53.126824346 964.0
53.131748202 908.0
53.136672058 946.0
53.141595914 906.0
53.146519770 913.0
53.151443626 828.0
53.156367482 847.0
53.161291338 857.0
53.166215194 772.0
53.171139050 786.0
53.176062906 764.0
53.180986762 803.0
53.185910618 839.0
53.190834474 814.0
53.195758330 792.0
53.200682186 766.0
53.205606042 778.0
53.210529898 751.0
53.215453754 699.0
53.220377610 737.0
53.225301466 724.0
53.230225322 736.0
53.235149178 710.0
53.240073034 634.0
53.244996890 731.0
53.249920747 726.0
53.254844603 682.0
53.259768459 698.0
53.264692315 633.0
53.269616171 694.0
53.274540027 648.0
53.279463883 608.0
53.284387739 647.0
53.289311595 629.0
53.294235451 661.0
53.299159307 586.0
53.304083163 571.0
53.309007019 604.0
53.313930875 622.0
53.318854731 608.0
53.323778587 561.0
53.328702443 632.0
53.333626299 573.0
53.338550155 552.0
53.343474011 554.0
53.348397867 543.0
53.353321723 549.0
53.358245579 597.0
53.363169435 526.0
53.368093291 533.0
53.373017147 560.0
53.377941003 497.0
53.382864859 507.0
53.387788715 493.0
53.392712571 495.0
53.397636427 531.0
53.402560283 473.0
53.407484139 493.0
53.412407995 491.0
53.417331851 448.0
53.422255707 483.0
53.427179563 502.0
53.432103419 497.0
53.437027275 475.0
53.441951131 454.0
53.446874987 432.0
53.451798843 429.0
53.456722699 456.0
53.461646555 435.0
53.466570411 425.0
53.471494267 450.0
53.476418123 451.0
53.481341979 420.0
53.486265835 369.0
53.491189691 417.0
53.496113547 402.0
53.501037403 419.0
53.505961259 395.0
53.510885115 381.0
53.515808971 430.0
53.520732827 391.0
53.525656683 355.0
53.530580539 408.0
53.535504395 393.0
53.540428251 409.0
53.545352107 343.0
53.550275963 380.0
53.555199819 382.0
53.560123675 362.0
53.565047531 373.0
53.569971387 367.0
53.574895243 354.0
53.579819099 365.0
53.584742955 361.0
53.589666811 330.0
53.594590667 357.0
53.599514523 304.0
53.604438379 332.0
53.609362235 307.0
53.614286091 341.0
53.619209947 330.0
53.624133803 345.0
53.629057659 329.0
53.633981515 314.0
53.638905371 298.0
53.643829227 318.0
53.648753083 309.0
53.653676939 337.0
53.658600795 318.0
53.663524651 324.0
53.668448507 288.0
53.673372363 329.0
53.678296219 283.0
53.683220075 294.0
53.688143931 324.0
53.693067787 316.0
53.697991643 284.0
53.702915499 304.0
53.707839355 267.0
53.712763211 284.0
53.717687067 276.0
53.722610923 293.0
53.727534779 265.0
53.732458635 277.0
53.737382491 292.0
53.742306347 275.0
53.747230203 256.0
53.752154060 224.0
53.757077916 274.0
53.762001772 229.0
53.766925628 265.0
53.771849484 271.0
53.776773340 274.0
53.781697196 219.0
53.786621052 226.0
53.791544908 275.0
53.796468764 227.0
53.801392620 255.0
53.806316476 272.0
53.811240332 263.0
53.816164188 191.0
53.821088044 262.0
53.826011900 262.0
53.830935756 256.0
53.835859612 212.0
53.840783468 210.0
53.845707324 220.0
53.850631180 228.0
53.855555036 212.0
53.860478892 228.0
53.865402748 208.0
53.870326604 216.0
53.875250460 256.0
53.880174316 202.0
53.885098172 257.0
53.890022028 212.0
53.894945884 199.0
53.899869740 224.0
53.904793596 217.0
53.909717452 212.0
53.914641308 255.0
53.919565164 232.0
53.924489020 185.0
53.929412876 216.0
53.934336732 194.0
53.939260588 195.0
53.944184444 212.0
53.949108300 217.0
53.954032156 217.0
53.958956012 178.0
53.963879868 182.0
53.968803724 206.0
53.973727580 213.0
53.978651436 214.0
53.983575292 217.0
53.988499148 181.0
53.993423004 206.0
53.998346860 208.0
54.003270716 199.0
54.008194572 190.0
54.013118428 215.0
54.018042284 203.0
54.022966140 193.0
54.027889996 194.0
54.032813852 178.0
54.037737708 164.0
54.042661564 183.0
54.047585420 191.0
54.052509276 175.0
54.057433132 213.0
54.062356988 214.0
54.067280844 193.0
54.072204700 201.0
54.077128556 208.0
54.082052412 175.0
54.086976268 201.0
54.091900124 190.0
54.096823980 159.0
54.101747836 179.0
54.106671692 176.0
54.111595548 189.0
54.116519404 164.0
54.121443260 171.0
54.126367116 217.0
54.131290972 164.0
54.136214828 175.0
54.141138684 174.0
54.146062540 184.0
54.150986396 181.0
54.155910252 191.0
54.160834108 172.0
54.165757964 184.0
54.170681820 168.0
54.175605676 176.0
54.180529532 146.0
54.185453388 197.0
54.190377244 177.0
54.195301100 163.0
54.200224956 158.0
54.205148812 187.0
54.210072668 174.0
54.214996524 183.0
54.219920380 182.0
54.224844236 154.0
54.229768092 187.0
54.234691948 180.0
54.239615804 162.0
54.244539660 159.0
54.249463517 157.0
54.254387373 185.0
54.259311229 164.0
54.264235085 154.0
54.269158941 164.0
54.274082797 166.0
54.279006653 176.0
54.283930509 172.0
54.288854365 168.0
54.293778221 147.0
54.298702077 157.0
54.303625933 173.0
54.308549789 159.0
54.313473645 183.0
54.318397501 169.0
54.323321357 171.0
54.328245213 161.0
54.333169069 169.0
54.338092925 184.0
54.343016781 160.0
54.347940637 167.0
54.352864493 179.0
54.357788349 158.0
54.362712205 183.0
54.367636061 180.0
54.372559917 177.0
54.377483773 155.0
54.382407629 179.0
54.387331485 165.0
54.392255341 168.0
54.397179197 175.0
54.402103053 153.0
54.407026909 170.0
54.411950765 123.0
54.416874621 184.0
54.421798477 168.0
54.426722333 166.0
54.431646189 164.0
54.436570045 162.0
54.441493901 136.0
54.446417757 152.0
54.451341613 147.0
54.456265469 145.0
54.461189325 170.0
54.466113181 164.0
54.471037037 176.0
54.475960893 158.0
54.480884749 160.0
54.485808605 145.0
54.490732461 180.0
54.495656317 152.0
54.500580173 167.0
54.505504029 159.0
54.510427885 139.0
54.515351741 161.0
54.520275597 148.0
54.525199453 173.0
54.530123309 154.0
54.535047165 145.0
54.539971021 150.0
54.544894877 138.0
54.549818733 170.0
54.554742589 140.0
54.559666445 178.0
54.564590301 169.0
54.569514157 155.0
54.574438013 157.0
54.579361869 156.0
54.584285725 131.0
54.589209581 135.0
54.594133437 153.0
54.599057293 122.0
54.603981149 147.0
54.608905005 168.0
54.613828861 140.0
54.618752717 135.0
54.623676573 149.0
54.628600429 150.0
54.633524285 156.0
54.638448141 143.0
54.643371997 145.0
54.648295853 157.0
54.653219709 138.0
54.658143565 155.0
54.663067421 148.0
54.667991277 149.0
54.672915133 124.0
54.677838989 141.0
54.682762845 134.0
54.687686701 151.0
54.692610557 144.0
54.697534413 135.0
54.702458269 147.0
54.707382125 175.0
54.712305981 157.0
54.717229837 145.0
54.722153693 147.0
54.727077549 141.0
54.732001405 146.0
54.736925261 154.0
54.741849117 140.0
54.746772973 132.0
54.751696830 164.0
54.756620686 134.0
54.761544542 147.0
54.766468398 138.0
54.771392254 155.0
54.776316110 124.0
54.781239966 142.0
54.786163822 132.0
54.791087678 152.0
54.796011534 139.0
54.800935390 132.0
54.805859246 144.0
54.810783102 146.0
54.815706958 146.0
54.820630814 131.0
54.825554670 149.0
54.830478526 144.0
54.835402382 122.0
54.840326238 135.0
54.845250094 155.0
54.850173950 154.0
54.855097806 144.0
54.860021662 144.0
54.864945518 145.0
54.869869374 158.0
54.874793230 151.0
54.879717086 157.0
54.884640942 138.0
54.889564798 134.0
54.894488654 124.0
54.899412510 139.0
54.904336366 113.0
54.909260222 141.0
54.914184078 146.0
54.919107934 148.0
54.924031790 136.0
54.928955646 132.0
54.933879502 136.0
54.938803358 146.0
54.943727214 136.0
54.948651070 155.0
54.953574926 146.0
54.958498782 133.0
54.963422638 139.0
54.968346494 141.0
54.973270350 135.0
54.978194206 136.0
54.983118062 136.0
54.988041918 133.0
54.992965774 117.0
54.997889630 134.0
