35.002061930 166.0
35.006985786 165.0
35.011909642 149.0
35.016833498 165.0
35.021757354 169.0
35.026681210 172.0
35.031605066 182.0
35.036528922 182.0
35.041452778 160.0
35.046376634 170.0
35.051300490 171.0
35.056224346 177.0
35.061148202 183.0
35.066072058 166.0
35.070995914 153.0
35.075919770 157.0
35.080843626 163.0
35.085767482 163.0
35.090691338 165.0
35.095615194 147.0
35.100539050 171.0
35.105462906 158.0
35.110386762 187.0
35.115310618 168.0
35.120234474 173.0
35.125158330 138.0
35.130082186 189.0
35.135006042 156.0
35.139929898 179.0
35.144853754 156.0
35.149777610 149.0
35.154701466 182.0
35.159625322 182.0
35.164549178 167.0
35.169473034 146.0
35.174396890 142.0
35.179320746 182.0
35.184244602 186.0
35.189168458 165.0
35.194092314 151.0
35.199016170 162.0
35.203940026 162.0
35.208863882 162.0
35.213787738 150.0
35.218711594 185.0
35.223635450 172.0
35.228559306 179.0
35.233483162 157.0
35.238407018 164.0
35.243330874 203.0
35.248254730 170.0
35.253178587 167.0
35.258102443 172.0
35.263026299 174.0
35.267950155 152.0
35.272874011 171.0
35.277797867 162.0
35.282721723 171.0
35.287645579 158.0
35.292569435 188.0
35.297493291 157.0
35.302417147 184.0
35.307341003 159.0
35.312264859 161.0
35.317188715 175.0
35.322112571 185.0
35.327036427 179.0
35.331960283 149.0
35.336884139 180.0
35.341807995 181.0
35.346731851 169.0
35.351655707 169.0
35.356579563 172.0
35.361503419 153.0
35.366427275 171.0
35.371351131 169.0
35.376274987 166.0
35.381198843 178.0
35.386122699 154.0
35.391046555 148.0
35.395970411 177.0
35.400894267 152.0
35.405818123 162.0
35.410741979 158.0
35.415665835 158.0
35.420589691 164.0
35.425513547 176.0
35.430437403 167.0
35.435361259 172.0
35.440285115 140.0
35.445208971 146.0
35.450132827 153.0
35.455056683 166.0
35.459980539 160.0
35.464904395 150.0
35.469828251 143.0
35.474752107 153.0
35.479675963 183.0
35.484599819 153.0
35.489523675 172.0
35.494447531 178.0
35.499371387 138.0
35.504295243 155.0
35.509219099 173.0
35.514142955 160.0
35.519066811 167.0
35.523990667 181.0
35.528914523 164.0
35.533838379 155.0
35.538762235 167.0
35.543686091 175.0
35.548609947 157.0
35.553533803 162.0
35.558457659 162.0
35.563381515 151.0
35.568305371 187.0
35.573229227 165.0
35.578153083 144.0
35.583076939 167.0
35.588000795 164.0
35.592924651 180.0
35.597848507 169.0
35.602772363 145.0
35.607696219 180.0
35.612620075 151.0
35.617543931 162.0
35.622467787 160.0
35.627391643 162.0
35.632315499 171.0
35.637239355 156.0
35.642163211 183.0
35.647087067 179.0
35.652010923 163.0
35.656934779 160.0
35.661858635 160.0
35.666782491 193.0
35.671706347 151.0
35.676630203 187.0
35.681554059 179.0
35.686477915 161.0
35.691401771 152.0
35.696325627 173.0
35.701249483 187.0
35.706173339 172.0
35.711097195 161.0
35.716021051 162.0
35.720944907 151.0
35.725868763 160.0
35.730792619 164.0
35.735716475 171.0
35.740640331 161.0
35.745564187 156.0
35.750488043 152.0
35.755411900 167.0
35.760335756 169.0
35.765259612 173.0
35.770183468 164.0
35.775107324 169.0
35.780031180 176.0
35.784955036 162.0
35.789878892 162.0
35.794802748 149.0
35.799726604 180.0
35.804650460 147.0
35.809574316 183.0
35.814498172 168.0
35.819422028 159.0
35.824345884 169.0
35.829269740 152.0
35.834193596 165.0
35.839117452 148.0
35.844041308 142.0
35.848965164 157.0
35.853889020 154.0
35.858812876 166.0
35.863736732 155.0
35.868660588 159.0
35.873584444 171.0
35.878508300 148.0
35.883432156 177.0
35.888356012 164.0
35.893279868 179.0
35.898203724 170.0
35.903127580 160.0
35.908051436 170.0
35.912975292 166.0
35.917899148 162.0
35.922823004 178.0
35.927746860 149.0
35.932670716 158.0
35.937594572 157.0
35.942518428 148.0
35.947442284 166.0
35.952366140 176.0
35.957289996 157.0
35.962213852 182.0
35.967137708 161.0
35.972061564 177.0
35.976985420 182.0
35.981909276 145.0
35.986833132 168.0
35.991756988 154.0
35.996680844 184.0
36.001604700 165.0
36.006528556 167.0
36.011452412 179.0
36.016376268 165.0
36.021300124 150.0
36.026223980 163.0
36.031147836 152.0
36.036071692 159.0
36.040995548 172.0
36.045919404 173.0
36.050843260 168.0
36.055767116 171.0
36.060690972 158.0
36.065614828 167.0
36.070538684 158.0
36.075462540 182.0
36.080386396 181.0
36.085310252 171.0
36.090234108 150.0
36.095157964 168.0
36.100081820 152.0
36.105005676 163.0
36.109929532 166.0
36.114853388 166.0
36.119777244 152.0
36.124701100 162.0
36.129624956 160.0
36.134548812 160.0
36.139472668 174.0
36.144396524 164.0
36.149320380 186.0
36.154244236 161.0
36.159168092 163.0
36.164091948 173.0
36.169015804 168.0
36.173939660 171.0
36.178863516 171.0
36.183787372 185.0
36.188711228 161.0
36.193635084 162.0
36.198558940 163.0
36.203482796 150.0
36.208406652 171.0
36.213330508 158.0
36.218254364 177.0
36.223178220 180.0
36.228102076 183.0
36.233025932 165.0
36.237949788 161.0
36.242873644 170.0
36.247797500 163.0
36.252721357 173.0
36.257645213 153.0
36.262569069 137.0
36.267492925 162.0
36.272416781 164.0
36.277340637 136.0
36.282264493 168.0
36.287188349 155.0
36.292112205 155.0
36.297036061 170.0
36.301959917 167.0
36.306883773 183.0
36.311807629 166.0
36.316731485 181.0
36.321655341 168.0
36.326579197 171.0
36.331503053 172.0
36.336426909 192.0
36.341350765 152.0
36.346274621 152.0
36.351198477 185.0
36.356122333 185.0
36.361046189 148.0
36.365970045 178.0
36.370893901 150.0
36.375817757 161.0
36.380741613 169.0
36.385665469 184.0
36.390589325 151.0
36.395513181 179.0
36.400437037 154.0
36.405360893 171.0
36.410284749 164.0
36.415208605 150.0
36.420132461 169.0
36.425056317 163.0
36.429980173 152.0
36.434904029 179.0
36.439827885 160.0
36.444751741 164.0
36.449675597 162.0
36.454599453 132.0
36.459523309 178.0
36.464447165 171.0
36.469371021 182.0
36.474294877 154.0
36.479218733 184.0
36.484142589 160.0
36.489066445 161.0
36.493990301 176.0
36.498914157 170.0
36.503838013 179.0
36.508761869 187.0
36.513685725 162.0
36.518609581 155.0
36.523533437 192.0
36.528457293 151.0
36.533381149 152.0
36.538305005 160.0
36.543228861 160.0
36.548152717 158.0
36.553076573 157.0
36.558000429 152.0
36.562924285 152.0
36.567848141 176.0
36.572771997 158.0
36.577695853 163.0
36.582619709 167.0
36.587543565 146.0
36.592467421 178.0
36.597391277 155.0
36.602315133 153.0
36.607238989 159.0
36.612162845 160.0
36.617086701 152.0
36.622010557 153.0
36.626934413 153.0
36.631858269 160.0
36.636782125 144.0
36.641705981 157.0
36.646629837 150.0
36.651553693 187.0
36.656477549 175.0
36.661401405 161.0
36.666325261 184.0
36.671249117 177.0
36.676172973 152.0
36.681096829 147.0
36.686020685 157.0
36.690944541 142.0
36.695868397 160.0
36.700792253 182.0
36.705716109 174.0
36.710639965 162.0
36.715563821 159.0
36.720487677 163.0
36.725411533 159.0
36.730335389 174.0
36.735259245 156.0
36.740183101 158.0
36.745106957 150.0
36.750030813 130.0
36.754954670 147.0
36.759878526 171.0
36.764802382 153.0
36.769726238 151.0
36.774650094 170.0
36.779573950 155.0
36.784497806 186.0
36.789421662 159.0
36.794345518 167.0
36.799269374 160.0
36.804193230 166.0
36.809117086 171.0
36.814040942 152.0
36.818964798 153.0
36.823888654 155.0
36.828812510 169.0
36.833736366 163.0
36.838660222 154.0
36.843584078 180.0
36.848507934 143.0
36.853431790 167.0
36.858355646 171.0
36.863279502 149.0
36.868203358 154.0
36.873127214 188.0
36.878051070 148.0
36.882974926 179.0
36.887898782 151.0
36.892822638 167.0
36.897746494 185.0
36.902670350 142.0
36.907594206 173.0
36.912518062 186.0
36.917441918 151.0
36.922365774 165.0
36.927289630 162.0
36.932213486 163.0
36.937137342 178.0
36.942061198 151.0
36.946985054 146.0
36.951908910 156.0
36.956832766 152.0
36.961756622 140.0
36.966680478 184.0
36.971604334 164.0
36.976528190 172.0
36.981452046 172.0
36.986375902 173.0
36.991299758 152.0
36.996223614 155.0
37.001147470 176.0
37.006071326 168.0
37.010995182 160.0
37.015919038 168.0
37.020842894 140.0
37.025766750 164.0
37.030690606 171.0
37.035614462 171.0
37.040538318 190.0
37.045462174 154.0
37.050386030 166.0
37.055309886 182.0
37.060233742 179.0
37.065157598 154.0
37.070081454 172.0
37.075005310 164.0
37.079929166 180.0
37.084853022 161.0
37.089776878 186.0
37.094700734 176.0
37.099624590 170.0
37.104548446 143.0
37.109472302 153.0
37.114396158 159.0
37.119320014 174.0
37.124243870 182.0
37.129167726 167.0
37.134091582 169.0
37.139015438 180.0
37.143939294 158.0
37.148863150 157.0
37.153787006 194.0
37.158710862 170.0
37.163634718 175.0
37.168558574 181.0
37.173482430 175.0
37.178406286 150.0
37.183330142 165.0
37.188253998 159.0
37.193177854 160.0
37.198101710 170.0
37.203025566 167.0
37.207949422 169.0
37.212873278 158.0
37.217797134 179.0
37.222720990 146.0
37.227644846 160.0
37.232568702 179.0
37.237492558 146.0
37.242416414 179.0
37.247340270 155.0
37.252264127 183.0
37.257187983 152.0
37.262111839 153.0
37.267035695 188.0
37.271959551 165.0
37.276883407 168.0
37.281807263 130.0
37.286731119 147.0
37.291654975 178.0
37.296578831 127.0
37.301502687 132.0
37.306426543 178.0
37.311350399 172.0
37.316274255 166.0
37.321198111 161.0
37.326121967 141.0
37.331045823 188.0
37.335969679 164.0
37.340893535 202.0
37.345817391 178.0
37.350741247 173.0
37.355665103 170.0
37.360588959 172.0
37.365512815 181.0
37.370436671 205.0
37.375360527 193.0
37.380284383 200.0
37.385208239 199.0
37.390132095 186.0
37.395055951 182.0
37.399979807 218.0
37.404903663 263.0
37.409827519 273.0
37.414751375 318.0
37.419675231 359.0
37.424599087 348.0
37.429522943 392.0
37.434446799 366.0
37.439370655 405.0
37.444294511 372.0
37.449218367 393.0
37.454142223 377.0
37.459066079 326.0
37.463989935 325.0
37.468913791 295.0
37.473837647 290.0
37.478761503 239.0
37.483685359 217.0
37.488609215 204.0
37.493533071 181.0
37.498456927 202.0
37.503380783 184.0
37.508304639 182.0
37.513228495 172.0
37.518152351 177.0
37.523076207 154.0
37.528000063 158.0
37.532923919 177.0
37.537847775 190.0
37.542771631 186.0
37.547695487 194.0
37.552619343 170.0
37.557543199 157.0
37.562467055 174.0
37.567390911 197.0
37.572314767 169.0
37.577238623 194.0
37.582162479 184.0
37.587086335 171.0
37.592010191 166.0
37.596934047 168.0
37.601857903 189.0
37.606781759 171.0
37.611705615 188.0
37.616629471 173.0
37.621553327 165.0
37.626477183 173.0
37.631401039 191.0
37.636324895 197.0
37.641248751 154.0
37.646172607 169.0
37.651096463 179.0
37.656020319 182.0
37.660944175 180.0
37.665868031 170.0
37.670791887 171.0
37.675715743 166.0
37.680639599 173.0
37.685563455 146.0
37.690487311 161.0
37.695411167 158.0
37.700335023 186.0
37.705258879 186.0
37.710182735 192.0
37.715106591 170.0
37.720030447 158.0
37.724954303 208.0
37.729878159 162.0
37.734802015 181.0
37.739725871 170.0
37.744649727 179.0
37.749573583 178.0
37.754497440 164.0
37.759421296 174.0
37.764345152 168.0
37.769269008 191.0
37.774192864 177.0
37.779116720 166.0
37.784040576 176.0
37.788964432 178.0
37.793888288 176.0
37.798812144 153.0
37.803736000 183.0
37.808659856 185.0
37.813583712 172.0
37.818507568 165.0
37.823431424 178.0
37.828355280 170.0
37.833279136 184.0
37.838202992 181.0
37.843126848 168.0
37.848050704 159.0
37.852974560 164.0
37.857898416 169.0
37.862822272 159.0
37.867746128 190.0
37.872669984 174.0
37.877593840 211.0
37.882517696 189.0
37.887441552 164.0
37.892365408 186.0
37.897289264 168.0
37.902213120 184.0
37.907136976 187.0
37.912060832 175.0
37.916984688 168.0
37.921908544 181.0
37.926832400 195.0
37.931756256 183.0
37.936680112 186.0
37.941603968 166.0
37.946527824 185.0
37.951451680 201.0
37.956375536 177.0
37.961299392 184.0
37.966223248 185.0
37.971147104 209.0
37.976070960 188.0
37.980994816 179.0
37.985918672 174.0
37.990842528 208.0
37.995766384 186.0
38.000690240 178.0
38.005614096 180.0
38.010537952 194.0
38.015461808 198.0
38.020385664 199.0
38.025309520 196.0
38.030233376 171.0
38.035157232 197.0
38.040081088 195.0
38.045004944 190.0
38.049928800 207.0
38.054852656 214.0
38.059776512 203.0
38.064700368 192.0
38.069624224 206.0
38.074548080 203.0
38.079471936 213.0
38.084395792 191.0
38.089319648 224.0
38.094243504 197.0
38.099167360 166.0
38.104091216 195.0
38.109015072 210.0
38.113938928 220.0
38.118862784 190.0
38.123786640 215.0
38.128710496 191.0
38.133634352 215.0
38.138558208 208.0
38.143482064 232.0
38.148405920 238.0
38.153329776 244.0
38.158253632 213.0
38.163177488 236.0
38.168101344 226.0
38.173025200 214.0
38.177949056 204.0
38.182872912 208.0
38.187796768 248.0
38.192720624 224.0
38.197644480 239.0
38.202568336 222.0
38.207492192 208.0
38.212416048 212.0
38.217339904 221.0
38.222263760 242.0
38.227187616 196.0
38.232111472 240.0
38.237035328 211.0
38.241959184 225.0
38.246883040 248.0
38.251806897 248.0
38.256730753 263.0
38.261654609 226.0
38.266578465 247.0
38.271502321 269.0
38.276426177 228.0
38.281350033 237.0
38.286273889 246.0
38.291197745 285.0
38.296121601 258.0
38.301045457 269.0
38.305969313 231.0
38.310893169 245.0
38.315817025 239.0
38.320740881 268.0
38.325664737 275.0
38.330588593 260.0
38.335512449 273.0
38.340436305 246.0
38.345360161 271.0
38.350284017 273.0
38.355207873 263.0
38.360131729 260.0
38.365055585 277.0
38.369979441 280.0
38.374903297 266.0
38.379827153 281.0
38.384751009 293.0
38.389674865 287.0
38.394598721 280.0
38.399522577 275.0
38.404446433 304.0
38.409370289 250.0
38.414294145 273.0
38.419218001 270.0
38.424141857 270.0
38.429065713 296.0
38.433989569 328.0
38.438913425 277.0
38.443837281 288.0
38.448761137 302.0
38.453684993 293.0
38.458608849 284.0
38.463532705 320.0
38.468456561 314.0
38.473380417 303.0
38.478304273 285.0
38.483228129 328.0
38.488151985 319.0
38.493075841 315.0
38.497999697 327.0
38.502923553 321.0
38.507847409 281.0
38.512771265 325.0
38.517695121 338.0
38.522618977 328.0
38.527542833 298.0
38.532466689 307.0
38.537390545 332.0
38.542314401 351.0
38.547238257 325.0
38.552162113 312.0
38.557085969 362.0
38.562009825 351.0
38.566933681 347.0
38.571857537 375.0
38.576781393 334.0
38.581705249 337.0
38.586629105 331.0
38.591552961 355.0
38.596476817 356.0
38.601400673 353.0
38.606324529 315.0
38.611248385 385.0
38.616172241 325.0
38.621096097 374.0
38.626019953 352.0
38.630943809 364.0
38.635867665 337.0
38.640791521 359.0
38.645715377 358.0
38.650639233 356.0
38.655563089 399.0
38.660486945 372.0
38.665410801 358.0
38.670334657 356.0
38.675258513 374.0
38.680182369 358.0
38.685106225 393.0
38.690030081 335.0
38.694953937 379.0
38.699877793 380.0
38.704801649 353.0
38.709725505 389.0
38.714649361 395.0
38.719573217 341.0
38.724497073 378.0
38.729420929 390.0
38.734344785 380.0
38.739268641 366.0
38.744192497 389.0
38.749116353 373.0
38.754040210 376.0
38.758964066 406.0
38.763887922 366.0
38.768811778 401.0
38.773735634 411.0
38.778659490 411.0
38.783583346 433.0
38.788507202 408.0
38.793431058 413.0
38.798354914 370.0
38.803278770 414.0
38.808202626 385.0
38.813126482 417.0
38.818050338 412.0
38.822974194 398.0
38.827898050 393.0
38.832821906 429.0
38.837745762 441.0
38.842669618 440.0
38.847593474 434.0
38.852517330 412.0
38.857441186 398.0
38.862365042 399.0
38.867288898 417.0
38.872212754 436.0
38.877136610 411.0
38.882060466 415.0
38.886984322 390.0
38.891908178 402.0
38.896832034 393.0
38.901755890 433.0
38.906679746 393.0
38.911603602 405.0
38.916527458 385.0
38.921451314 424.0
38.926375170 451.0
38.931299026 470.0
38.936222882 429.0
38.941146738 435.0
38.946070594 421.0
38.950994450 415.0
38.955918306 459.0
38.960842162 450.0
38.965766018 438.0
38.970689874 412.0
38.975613730 406.0
38.980537586 458.0
38.985461442 391.0
38.990385298 449.0
38.995309154 419.0
39.000233010 399.0
39.005156866 425.0
39.010080722 425.0
39.015004578 418.0
39.019928434 414.0
39.024852290 403.0
39.029776146 409.0
39.034700002 402.0
39.039623858 406.0
39.044547714 416.0
39.049471570 420.0
39.054395426 426.0
39.059319282 412.0
39.064243138 428.0
39.069166994 425.0
39.074090850 396.0
39.079014706 435.0
39.083938562 392.0
39.088862418 374.0
39.093786274 435.0
39.098710130 383.0
39.103633986 415.0
39.108557842 394.0
39.113481698 388.0
39.118405554 406.0
39.123329410 387.0
39.128253266 396.0
39.133177122 439.0
39.138100978 410.0
39.143024834 394.0
39.147948690 374.0
39.152872546 380.0
39.157796402 371.0
39.162720258 374.0
39.167644114 365.0
39.172567970 376.0
39.177491826 368.0
39.182415682 391.0
39.187339538 400.0
39.192263394 380.0
39.197187250 352.0
39.202111106 379.0
39.207034962 369.0
39.211958818 350.0
39.216882674 371.0
39.221806530 321.0
39.226730386 390.0
39.231654242 374.0
39.236578098 333.0
39.241501954 368.0
39.246425810 334.0
39.251349667 320.0
39.256273523 333.0
39.261197379 297.0
39.266121235 304.0
39.271045091 318.0
39.275968947 306.0
39.280892803 321.0
39.285816659 296.0
39.290740515 340.0
39.295664371 293.0
39.300588227 332.0
39.305512083 326.0
39.310435939 312.0
39.315359795 333.0
39.320283651 318.0
39.325207507 318.0
39.330131363 302.0
39.335055219 282.0
39.339979075 305.0
39.344902931 283.0
39.349826787 313.0
39.354750643 283.0
39.359674499 268.0
39.364598355 287.0
39.369522211 275.0
39.374446067 322.0
39.379369923 275.0
39.384293779 301.0
39.389217635 307.0
39.394141491 272.0
39.399065347 280.0
39.403989203 260.0
39.408913059 270.0
39.413836915 293.0
39.418760771 285.0
39.423684627 284.0
39.428608483 271.0
39.433532339 269.0
39.438456195 263.0
39.443380051 248.0
39.448303907 255.0
39.453227763 270.0
39.458151619 257.0
39.463075475 239.0
39.467999331 226.0
39.472923187 238.0
39.477847043 237.0
39.482770899 229.0
39.487694755 271.0
39.492618611 212.0
39.497542467 272.0
39.502466323 219.0
39.507390179 224.0
39.512314035 233.0
39.517237891 227.0
39.522161747 239.0
39.527085603 226.0
39.532009459 233.0
39.536933315 218.0
39.541857171 232.0
39.546781027 210.0
39.551704883 227.0
39.556628739 222.0
39.561552595 212.0
39.566476451 244.0
39.571400307 216.0
39.576324163 222.0
39.581248019 198.0
39.586171875 195.0
39.591095731 224.0
39.596019587 201.0
39.600943443 207.0
39.605867299 220.0
39.610791155 193.0
39.615715011 203.0
39.620638867 207.0
39.625562723 199.0
39.630486579 231.0
39.635410435 206.0
39.640334291 198.0
39.645258147 200.0
39.650182003 202.0
39.655105859 202.0
39.660029715 197.0
39.664953571 217.0
39.669877427 190.0
39.674801283 200.0
39.679725139 195.0
39.684648995 187.0
39.689572851 220.0
39.694496707 180.0
39.699420563 220.0
39.704344419 206.0
39.709268275 174.0
39.714192131 200.0
39.719115987 203.0
39.724039843 217.0
39.728963699 213.0
39.733887555 189.0
39.738811411 177.0
39.743735267 203.0
39.748659123 192.0
39.753582980 166.0
39.758506836 181.0
39.763430692 157.0
39.768354548 177.0
39.773278404 201.0
39.778202260 187.0
39.783126116 190.0
39.788049972 192.0
39.792973828 212.0
39.797897684 200.0
39.802821540 202.0
39.807745396 167.0
39.812669252 209.0
39.817593108 182.0
39.822516964 185.0
39.827440820 187.0
39.832364676 182.0
39.837288532 178.0
39.842212388 197.0
39.847136244 218.0
39.852060100 170.0
39.856983956 193.0
39.861907812 187.0
39.866831668 165.0
39.871755524 200.0
39.876679380 176.0
39.881603236 178.0
39.886527092 175.0
39.891450948 173.0
39.896374804 176.0
39.901298660 178.0
39.906222516 188.0
39.911146372 196.0
39.916070228 192.0
39.920994084 179.0
39.925917940 158.0
39.930841796 178.0
39.935765652 168.0
39.940689508 186.0
39.945613364 180.0
39.950537220 176.0
39.955461076 203.0
39.960384932 182.0
39.965308788 166.0
39.970232644 178.0
39.975156500 172.0
39.980080356 178.0
39.985004212 197.0
39.989928068 190.0
39.994851924 190.0
39.999775780 169.0
40.004699636 160.0
40.009623492 170.0
40.014547348 183.0
40.019471204 149.0
40.024395060 169.0
40.029318916 170.0
40.034242772 191.0
40.039166628 144.0
40.044090484 165.0
40.049014340 143.0
40.053938196 171.0
40.058862052 162.0
40.063785908 183.0
40.068709764 149.0
40.073633620 183.0
40.078557476 163.0
40.083481332 157.0
40.088405188 188.0
40.093329044 195.0
40.098252900 178.0
40.103176756 182.0
40.108100612 170.0
40.113024468 199.0
40.117948324 167.0
40.122872180 186.0
40.127796036 193.0
40.132719892 180.0
40.137643748 178.0
40.142567604 171.0
40.147491460 173.0
40.152415316 175.0
40.157339172 172.0
40.162263028 169.0
40.167186884 200.0
40.172110740 167.0
40.177034596 177.0
40.181958452 179.0
40.186882308 173.0
40.191806164 160.0
40.196730020 196.0
40.201653876 189.0
40.206577732 191.0
40.211501588 195.0
40.216425444 153.0
40.221349300 187.0
40.226273156 189.0
40.231197012 151.0
40.236120868 175.0
40.241044724 155.0
40.245968580 178.0
40.250892437 187.0
40.255816293 180.0
40.260740149 188.0
40.265664005 204.0
40.270587861 162.0
40.275511717 183.0
40.280435573 179.0
40.285359429 166.0
40.290283285 168.0
40.295207141 188.0
40.300130997 176.0
40.305054853 170.0
40.309978709 172.0
40.314902565 184.0
40.319826421 160.0
40.324750277 177.0
40.329674133 168.0
40.334597989 182.0
40.339521845 168.0
40.344445701 189.0
40.349369557 168.0
40.354293413 178.0
40.359217269 191.0
40.364141125 171.0
40.369064981 202.0
40.373988837 180.0
40.378912693 164.0
40.383836549 154.0
40.388760405 164.0
40.393684261 173.0
40.398608117 182.0
40.403531973 170.0
40.408455829 195.0
40.413379685 162.0
40.418303541 188.0
40.423227397 195.0
40.428151253 185.0
40.433075109 189.0
40.437998965 185.0
40.442922821 164.0
40.447846677 183.0
40.452770533 184.0
40.457694389 198.0
40.462618245 199.0
40.467542101 206.0
40.472465957 161.0
40.477389813 167.0
40.482313669 186.0
40.487237525 146.0
40.492161381 184.0
40.497085237 187.0
40.502009093 192.0
40.506932949 193.0
40.511856805 169.0
40.516780661 183.0
40.521704517 203.0
40.526628373 160.0
40.531552229 185.0
40.536476085 166.0
40.541399941 186.0
40.546323797 172.0
40.551247653 173.0
40.556171509 190.0
40.561095365 204.0
40.566019221 170.0
40.570943077 172.0
40.575866933 185.0
40.580790789 200.0
40.585714645 170.0
40.590638501 207.0
40.595562357 201.0
40.600486213 195.0
40.605410069 192.0
40.610333925 207.0
40.615257781 186.0
40.620181637 210.0
40.625105493 192.0
40.630029349 204.0
40.634953205 207.0
40.639877061 196.0
40.644800917 168.0
40.649724773 186.0
40.654648629 169.0
40.659572485 202.0
40.664496341 171.0
40.669420197 184.0
40.674344053 201.0
40.679267909 196.0
40.684191765 201.0
40.689115621 191.0
40.694039477 159.0
40.698963333 201.0
40.703887189 168.0
40.708811045 204.0
40.713734901 205.0
40.718658757 203.0
40.723582613 190.0
40.728506469 193.0
40.733430325 216.0
40.738354181 199.0
40.743278037 209.0
40.748201893 207.0
40.753125750 217.0
40.758049606 203.0
40.762973462 196.0
40.767897318 188.0
40.772821174 201.0
40.777745030 196.0
40.782668886 214.0
40.787592742 226.0
40.792516598 181.0
40.797440454 220.0
40.802364310 181.0
40.807288166 237.0
40.812212022 198.0
40.817135878 222.0
40.822059734 205.0
40.826983590 209.0
40.831907446 192.0
40.836831302 193.0
40.841755158 216.0
40.846679014 194.0
40.851602870 219.0
40.856526726 201.0
40.861450582 199.0
40.866374438 207.0
40.871298294 234.0
40.876222150 197.0
40.881146006 212.0
40.886069862 209.0
40.890993718 213.0
40.895917574 213.0
40.900841430 271.0
40.905765286 196.0
40.910689142 201.0
40.915612998 188.0
40.920536854 202.0
40.925460710 207.0
40.930384566 235.0
40.935308422 256.0
40.940232278 200.0
40.945156134 222.0
40.950079990 211.0
40.955003846 215.0
40.959927702 224.0
40.964851558 262.0
40.969775414 263.0
40.974699270 219.0
40.979623126 202.0
40.984546982 275.0
40.989470838 228.0
40.994394694 258.0
40.999318550 215.0
41.004242406 288.0
41.009166262 237.0
41.014090118 206.0
41.019013974 210.0
41.023937830 210.0
41.028861686 266.0
41.033785542 297.0
41.038709398 223.0
41.043633254 224.0
41.048557110 296.0
41.053480966 203.0
41.058404822 265.0
41.063328678 209.0
41.068252534 287.0
41.073176390 216.0
41.078100246 227.0
41.083024102 261.0
41.087947958 227.0
41.092871814 278.0
41.097795670 225.0
41.102719526 231.0
41.107643382 265.0
41.112567238 261.0
41.117491094 282.0
41.122414950 298.0
41.127338806 283.0
41.132262662 305.0
41.137186518 264.0
41.142110374 284.0
41.147034230 271.0
41.151958086 278.0
41.156881942 266.0
41.161805798 279.0
41.166729654 273.0
41.171653510 297.0
41.176577366 307.0
41.181501222 296.0
41.186425078 303.0
41.191348934 303.0
41.196272790 319.0
41.201196646 271.0
41.206120502 294.0
41.211044358 328.0
41.215968214 296.0
41.220892070 297.0
41.225815926 335.0
41.230739782 344.0
41.235663638 315.0
41.240587494 289.0
41.245511350 320.0
41.250435207 286.0
41.255359063 329.0
41.260282919 363.0
41.265206775 311.0
41.270130631 334.0
41.275054487 319.0
41.279978343 388.0
41.284902199 354.0
41.289826055 347.0
41.294749911 348.0
41.299673767 384.0
41.304597623 379.0
41.309521479 367.0
41.314445335 380.0
41.319369191 390.0
41.324293047 380.0
41.329216903 429.0
41.334140759 400.0
41.339064615 405.0
41.343988471 452.0
41.348912327 439.0
41.353836183 491.0
41.358760039 492.0
41.363683895 503.0
41.368607751 510.0
41.373531607 544.0
41.378455463 583.0
41.383379319 587.0
41.388303175 687.0
41.393227031 707.0
41.398150887 837.0
41.403074743 804.0
41.407998599 820.0
41.412922455 891.0
41.417846311 948.0
41.422770167 932.0
41.427694023 969.0
41.432617879 1003.0
41.437541735 1058.0
41.442465591 1008.0
41.447389447 1065.0
41.452313303 1038.0
41.457237159 1098.0
41.462161015 959.0
41.467084871 1020.0
41.472008727 901.0
41.476932583 1019.0
41.481856439 1069.0
41.486780295 1082.0
41.491704151 1102.0
41.496628007 1173.0
41.501551863 1162.0
41.506475719 1329.0
41.511399575 1391.0
41.516323431 1576.0
41.521247287 1720.0
41.526171143 1810.0
41.531094999 2124.0
41.536018855 2441.0
41.540942711 2767.0
41.545866567 3340.0
41.550790423 4141.0
41.555714279 5199.0
41.560638135 7287.0
41.565561991 9553.0
41.570485847 14041.0
41.575409703 18962.0
41.580333559 27573.0
41.585257415 35584.0
41.590181271 44474.0
41.595105127 51989.0
41.600028983 57736.0
41.604952839 61401.0
41.609876695 64740.0
41.614800551 66049.0
41.619724407 65665.0
41.624648263 64458.0
41.629572119 60036.0
41.634495975 52473.0
41.639419831 40615.0
41.644343687 29221.0
41.649267543 19958.0
41.654191399 14124.0
41.659115255 10601.0
41.664039111 8815.0
41.668962967 8041.0
41.673886823 8573.0
41.678810679 9894.0
41.683734535 12126.0
41.688658391 15754.0
41.693582247 19083.0
41.698506103 23647.0
41.703429959 26569.0
41.708353815 29495.0
41.713277671 31597.0
41.718201527 32342.0
41.723125383 32870.0
41.728049239 32497.0
41.732973095 31374.0
41.737896951 29046.0
41.742820807 25314.0
41.747744663 19898.0
41.752668520 14745.0
41.757592376 10522.0
41.762516232 7207.0
41.767440088 5186.0
41.772363944 3808.0
41.777287800 3050.0
41.782211656 2449.0
41.787135512 2023.0
41.792059368 1782.0
41.796983224 1679.0
41.801907080 1402.0
41.806830936 1320.0
41.811754792 1186.0
41.816678648 1086.0
41.821602504 1026.0
41.826526360 1006.0
41.831450216 984.0
41.836374072 864.0
41.841297928 811.0
41.846221784 851.0
41.851145640 778.0
41.856069496 713.0
41.860993352 701.0
41.865917208 681.0
41.870841064 623.0
41.875764920 636.0
41.880688776 630.0
41.885612632 586.0
41.890536488 562.0
41.895460344 516.0
41.900384200 553.0
41.905308056 515.0
41.910231912 544.0
41.915155768 464.0
41.920079624 524.0
41.925003480 460.0
41.929927336 476.0
41.934851192 463.0
41.939775048 468.0
41.944698904 435.0
41.949622760 437.0
41.954546616 386.0
41.959470472 410.0
41.964394328 413.0
41.969318184 419.0
41.974242040 387.0
41.979165896 373.0
41.984089752 385.0
41.989013608 384.0
41.993937464 394.0
41.998861320 378.0
42.003785176 331.0
42.008709032 335.0
42.013632888 355.0
42.018556744 342.0
42.023480600 309.0
42.028404456 364.0
42.033328312 332.0
42.038252168 325.0
42.043176024 330.0
42.048099880 367.0
42.053023736 316.0
42.057947592 304.0
42.062871448 297.0
42.067795304 355.0
42.072719160 308.0
42.077643016 346.0
42.082566872 305.0
42.087490728 294.0
42.092414584 328.0
42.097338440 318.0
42.102262296 304.0
42.107186152 268.0
42.112110008 282.0
42.117033864 302.0
42.121957720 269.0
42.126881576 274.0
42.131805432 267.0
42.136729288 266.0
42.141653144 305.0
42.146577000 256.0
42.151500856 232.0
42.156424712 260.0
42.161348568 261.0
42.166272424 274.0
42.171196280 224.0
42.176120136 231.0
42.181043992 276.0
42.185967848 268.0
42.190891704 229.0
42.195815560 256.0
42.200739416 223.0
42.205663272 211.0
42.210587128 256.0
42.215510984 272.0
42.220434840 240.0
42.225358696 212.0
42.230282552 255.0
42.235206408 209.0
42.240130264 191.0
42.245054120 205.0
42.249977977 227.0
42.254901833 215.0
42.259825689 207.0
42.264749545 216.0
42.269673401 232.0
42.274597257 207.0
42.279521113 225.0
42.284444969 224.0
42.289368825 210.0
42.294292681 182.0
42.299216537 200.0
42.304140393 196.0
42.309064249 207.0
42.313988105 196.0
42.318911961 207.0
42.323835817 224.0
42.328759673 179.0
42.333683529 220.0
42.338607385 214.0
42.343531241 216.0
42.348455097 206.0
42.353378953 228.0
42.358302809 211.0
42.363226665 191.0
42.368150521 202.0
42.373074377 194.0
42.377998233 174.0
42.382922089 213.0
42.387845945 207.0
42.392769801 195.0
42.397693657 189.0
42.402617513 202.0
42.407541369 211.0
42.412465225 184.0
42.417389081 181.0
42.422312937 188.0
42.427236793 188.0
42.432160649 203.0
42.437084505 191.0
42.442008361 186.0
42.446932217 169.0
42.451856073 185.0
42.456779929 180.0
42.461703785 166.0
42.466627641 186.0
42.471551497 202.0
42.476475353 181.0
42.481399209 184.0
42.486323065 186.0
42.491246921 187.0
42.496170777 185.0
42.501094633 190.0
42.506018489 189.0
42.510942345 168.0
42.515866201 188.0
42.520790057 188.0
42.525713913 195.0
42.530637769 154.0
42.535561625 178.0
42.540485481 181.0
42.545409337 185.0
42.550333193 177.0
42.555257049 188.0
42.560180905 166.0
42.565104761 189.0
42.570028617 193.0
42.574952473 157.0
42.579876329 191.0
42.584800185 185.0
42.589724041 173.0
42.594647897 169.0
42.599571753 171.0
42.604495609 168.0
42.609419465 164.0
42.614343321 163.0
42.619267177 187.0
42.624191033 183.0
42.629114889 168.0
42.634038745 180.0
42.638962601 158.0
42.643886457 169.0
42.648810313 177.0
42.653734169 171.0
42.658658025 174.0
42.663581881 200.0
42.668505737 196.0
42.673429593 193.0
42.678353449 182.0
42.683277305 144.0
42.688201161 164.0
42.693125017 192.0
42.698048873 160.0
42.702972729 168.0
42.707896585 185.0
42.712820441 188.0
42.717744297 148.0
42.722668153 146.0
42.727592009 174.0
42.732515865 168.0
42.737439721 146.0
42.742363577 191.0
42.747287433 183.0
42.752211290 175.0
42.757135146 157.0
42.762059002 159.0
42.766982858 174.0
42.771906714 192.0
42.776830570 153.0
42.781754426 160.0
42.786678282 164.0
42.791602138 169.0
42.796525994 145.0
42.801449850 191.0
42.806373706 163.0
42.811297562 163.0
42.816221418 167.0
42.821145274 145.0
42.826069130 164.0
42.830992986 189.0
42.835916842 162.0
42.840840698 159.0
42.845764554 171.0
42.850688410 152.0
42.855612266 168.0
42.860536122 183.0
42.865459978 167.0
42.870383834 161.0
42.875307690 159.0
42.880231546 155.0
42.885155402 173.0
42.890079258 185.0
42.895003114 172.0
42.899926970 155.0
42.904850826 162.0
42.909774682 176.0
42.914698538 148.0
42.919622394 176.0
42.924546250 154.0
42.929470106 165.0
42.934393962 181.0
42.939317818 167.0
42.944241674 165.0
42.949165530 180.0
42.954089386 159.0
42.959013242 179.0
42.963937098 158.0
42.968860954 174.0
42.973784810 171.0
42.978708666 155.0
42.983632522 180.0
42.988556378 163.0
42.993480234 175.0
42.998404090 150.0
43.003327946 183.0
43.008251802 151.0
43.013175658 186.0
43.018099514 172.0
43.023023370 165.0
43.027947226 182.0
43.032871082 178.0
43.037794938 167.0
43.042718794 165.0
43.047642650 158.0
43.052566506 148.0
43.057490362 136.0
43.062414218 151.0
43.067338074 161.0
43.072261930 150.0
43.077185786 177.0
43.082109642 166.0
43.087033498 143.0
43.091957354 163.0
43.096881210 166.0
43.101805066 167.0
43.106728922 180.0
43.111652778 183.0
43.116576634 169.0
43.121500490 146.0
43.126424346 163.0
43.131348202 166.0
43.136272058 171.0
43.141195914 171.0
43.146119770 173.0
43.151043626 172.0
43.155967482 169.0
43.160891338 163.0
43.165815194 157.0
43.170739050 151.0
43.175662906 153.0
43.180586762 148.0
43.185510618 171.0
43.190434474 157.0
43.195358330 164.0
43.200282186 168.0
43.205206042 176.0
43.210129898 179.0
43.215053754 173.0
43.219977610 175.0
43.224901466 181.0
43.229825322 172.0
43.234749178 175.0
43.239673034 149.0
43.244596890 150.0
43.249520747 171.0
43.254444603 167.0
43.259368459 166.0
43.264292315 157.0
43.269216171 158.0
43.274140027 171.0
43.279063883 186.0
43.283987739 166.0
43.288911595 157.0
43.293835451 160.0
43.298759307 145.0
43.303683163 156.0
43.308607019 159.0
43.313530875 147.0
43.318454731 151.0
43.323378587 174.0
43.328302443 166.0
43.333226299 156.0
43.338150155 170.0
43.343074011 165.0
43.347997867 154.0
43.352921723 138.0
43.357845579 175.0
43.362769435 173.0
43.367693291 160.0
43.372617147 156.0
43.377541003 169.0
43.382464859 170.0
43.387388715 168.0
43.392312571 169.0
43.397236427 157.0
43.402160283 170.0
43.407084139 156.0
43.412007995 163.0
43.416931851 150.0
43.421855707 165.0
43.426779563 153.0
43.431703419 156.0
43.436627275 149.0
43.441551131 165.0
43.446474987 150.0
43.451398843 158.0
43.456322699 134.0
43.461246555 153.0
43.466170411 154.0
43.471094267 178.0
43.476018123 167.0
43.480941979 177.0
43.485865835 171.0
43.490789691 168.0
43.495713547 166.0
43.500637403 176.0
43.505561259 155.0
43.510485115 171.0
43.515408971 174.0
43.520332827 144.0
43.525256683 173.0
43.530180539 159.0
43.535104395 163.0
43.540028251 168.0
43.544952107 167.0
43.549875963 154.0
43.554799819 138.0
43.559723675 167.0
43.564647531 171.0
43.569571387 169.0
43.574495243 166.0
43.579419099 170.0
43.584342955 191.0
43.589266811 136.0
43.594190667 175.0
43.599114523 171.0
43.604038379 162.0
43.608962235 163.0
43.613886091 172.0
43.618809947 167.0
43.623733803 138.0
43.628657659 175.0
43.633581515 175.0
43.638505371 153.0
43.643429227 188.0
43.648353083 172.0
43.653276939 159.0
43.658200795 166.0
43.663124651 179.0
43.668048507 164.0
43.672972363 162.0
43.677896219 151.0
43.682820075 178.0
43.687743931 174.0
43.692667787 162.0
43.697591643 168.0
43.702515499 160.0
43.707439355 170.0
43.712363211 214.0
43.717287067 161.0
43.722210923 185.0
43.727134779 189.0
43.732058635 180.0
43.736982491 157.0
43.741906347 140.0
43.746830203 159.0
43.751754060 182.0
43.756677916 157.0
43.761601772 178.0
43.766525628 161.0
43.771449484 161.0
43.776373340 182.0
43.781297196 156.0
43.786221052 173.0
43.791144908 174.0
43.796068764 192.0
43.800992620 182.0
43.805916476 177.0
43.810840332 164.0
43.815764188 163.0
43.820688044 157.0
43.825611900 166.0
43.830535756 188.0
43.835459612 165.0
43.840383468 195.0
43.845307324 175.0
43.850231180 175.0
43.855155036 169.0
43.860078892 164.0
43.865002748 161.0
43.869926604 170.0
43.874850460 179.0
43.879774316 179.0
43.884698172 166.0
43.889622028 194.0
43.894545884 211.0
43.899469740 195.0
43.904393596 175.0
43.909317452 179.0
43.914241308 181.0
43.919165164 163.0
43.924089020 185.0
43.929012876 176.0
43.933936732 196.0
43.938860588 194.0
43.943784444 196.0
43.948708300 187.0
43.953632156 186.0
43.958556012 177.0
43.963479868 188.0
43.968403724 179.0
43.973327580 199.0
43.978251436 189.0
43.983175292 179.0
43.988099148 188.0
43.993023004 195.0
43.997946860 225.0
44.002870716 171.0
44.007794572 166.0
44.012718428 179.0
44.017642284 205.0
44.022566140 182.0
44.027489996 198.0
44.032413852 181.0
44.037337708 202.0
44.042261564 198.0
44.047185420 190.0
44.052109276 181.0
44.057033132 198.0
44.061956988 191.0
44.066880844 185.0
44.071804700 185.0
44.076728556 212.0
44.081652412 208.0
44.086576268 221.0
44.091500124 199.0
44.096423980 200.0
44.101347836 210.0
44.106271692 197.0
44.111195548 175.0
44.116119404 234.0
44.121043260 186.0
44.125967116 212.0
44.130890972 216.0
44.135814828 171.0
44.140738684 221.0
44.145662540 218.0
44.150586396 235.0
44.155510252 223.0
44.160434108 221.0
44.165357964 230.0
44.170281820 213.0
44.175205676 217.0
44.180129532 223.0
44.185053388 207.0
44.189977244 210.0
44.194901100 225.0
44.199824956 219.0
44.204748812 230.0
44.209672668 265.0
44.214596524 260.0
44.219520380 247.0
44.224444236 228.0
44.229368092 216.0
44.234291948 237.0
44.239215804 215.0
44.244139660 243.0
44.249063517 260.0
44.253987373 249.0
44.258911229 287.0
44.263835085 235.0
44.268758941 284.0
44.273682797 256.0
44.278606653 262.0
44.283530509 315.0
44.288454365 277.0
44.293378221 277.0
44.298302077 281.0
44.303225933 312.0
44.308149789 311.0
44.313073645 309.0
44.317997501 296.0
44.322921357 334.0
44.327845213 339.0
44.332769069 316.0
44.337692925 336.0
44.342616781 335.0
44.347540637 342.0
44.352464493 368.0
44.357388349 397.0
44.362312205 326.0
44.367236061 388.0
44.372159917 333.0
44.377083773 392.0
44.382007629 365.0
44.386931485 367.0
44.391855341 363.0
44.396779197 363.0
44.401703053 391.0
44.406626909 392.0
44.411550765 363.0
44.416474621 374.0
44.421398477 370.0
44.426322333 360.0
44.431246189 357.0
44.436170045 377.0
44.441093901 394.0
44.446017757 349.0
44.450941613 368.0
44.455865469 385.0
44.460789325 348.0
44.465713181 380.0
44.470637037 318.0
44.475560893 343.0
44.480484749 320.0
44.485408605 343.0
44.490332461 322.0
44.495256317 364.0
44.500180173 302.0
44.505104029 332.0
44.510027885 341.0
44.514951741 329.0
44.519875597 318.0
44.524799453 294.0
44.529723309 334.0
44.534647165 302.0
44.539571021 287.0
44.544494877 317.0
44.549418733 263.0
44.554342589 298.0
44.559266445 294.0
44.564190301 255.0
44.569114157 316.0
44.574038013 234.0
44.578961869 262.0
44.583885725 277.0
44.588809581 242.0
44.593733437 268.0
44.598657293 262.0
44.603581149 269.0
44.608505005 224.0
44.613428861 257.0
44.618352717 214.0
44.623276573 235.0
44.628200429 230.0
44.633124285 232.0
44.638048141 232.0
44.642971997 227.0
44.647895853 212.0
44.652819709 214.0
44.657743565 183.0
44.662667421 233.0
44.667591277 198.0
44.672515133 210.0
44.677438989 214.0
44.682362845 224.0
44.687286701 186.0
44.692210557 217.0
44.697134413 190.0
44.702058269 189.0
44.706982125 214.0
44.711905981 207.0
44.716829837 194.0
44.721753693 176.0
44.726677549 208.0
44.731601405 181.0
44.736525261 190.0
44.741449117 177.0
44.746372973 182.0
44.751296830 163.0
44.756220686 193.0
44.761144542 196.0
44.766068398 181.0
44.770992254 167.0
44.775916110 169.0
44.780839966 191.0
44.785763822 181.0
44.790687678 165.0
44.795611534 186.0
44.800535390 202.0
44.805459246 166.0
44.810383102 167.0
44.815306958 168.0
44.820230814 183.0
44.825154670 151.0
44.830078526 163.0
44.835002382 161.0
44.839926238 173.0
44.844850094 155.0
44.849773950 166.0
44.854697806 176.0
44.859621662 171.0
44.864545518 188.0
44.869469374 171.0
44.874393230 179.0
44.879317086 181.0
44.884240942 166.0
44.889164798 182.0
44.894088654 155.0
44.899012510 185.0
44.903936366 166.0
44.908860222 187.0
44.913784078 158.0
44.918707934 158.0
44.923631790 174.0
44.928555646 167.0
44.933479502 172.0
44.938403358 184.0
44.943327214 162.0
44.948251070 182.0
44.953174926 177.0
44.958098782 162.0
44.963022638 144.0
44.967946494 179.0
44.972870350 164.0
44.977794206 178.0
44.982718062 164.0
44.987641918 177.0
44.992565774 147.0
44.997489630 155.0
