55.01000 0.0
55.02000 2.0
55.03000 1.0
55.04000 1.0
55.05000 1.0
55.06000 0.0
55.07000 1.0
55.08000 0.0
55.09000 0.0
55.10000 0.0
55.11000 0.0
55.12000 0.0
55.13000 2.0
55.14000 2.0
55.15000 1.0
55.16000 1.0
55.17000 0.0
55.18000 0.0
55.19000 2.0
55.20000 1.0
55.21000 1.0
55.22000 2.0
55.23000 0.0
55.24000 1.0
55.25000 0.0
55.26000 0.0
55.27000 0.0
55.28000 0.0
55.29000 2.0
55.30000 2.0
55.31000 0.0
55.32000 0.0
55.33000 1.0
55.34000 0.0
55.35000 1.0
55.36000 0.0
55.37000 0.0
55.38000 0.0
55.39000 0.0
55.40000 0.0
55.41000 0.0
55.42000 1.0
55.43000 0.0
55.44000 1.0
55.45000 0.0
55.46000 0.0
55.47000 0.0
55.48000 2.0
55.49000 1.0
55.50000 1.0
55.51000 0.0
55.52000 1.0
55.53000 1.0
55.54000 1.0
55.55000 1.0
55.56000 0.0
55.57000 0.0
55.58000 1.0
55.59000 0.0
55.60000 3.0
55.61000 1.0
55.62000 1.0
55.63000 0.0
55.64000 2.0
55.65000 1.0
55.66000 0.0
55.67000 0.0
55.68000 1.0
55.69000 1.0
55.70000 1.0
55.71000 0.0
55.72000 1.0
55.73000 0.0
55.74000 0.0
55.75000 1.0
55.76000 0.0
55.77000 0.0
55.78000 1.0
55.79000 0.0
55.80000 0.0
55.81000 0.0
55.82000 0.0
55.83000 2.0
55.84000 0.0
55.85000 0.0
55.86000 1.0
55.87000 0.0
55.88000 0.0
55.89000 2.0
55.90000 0.0
55.91000 0.0
55.92000 2.0
55.93000 0.0
55.94000 2.0
55.95000 0.0
55.96000 1.0
55.97000 2.0
55.98000 2.0
55.99000 0.0
56.00000 0.0
56.01000 2.0
56.02000 2.0
56.03000 0.0
56.04000 1.0
56.05000 0.0
56.06000 0.0
56.07000 0.0
56.08000 0.0
56.09000 2.0
56.10000 2.0
56.11000 0.0
56.12000 1.0
56.13000 1.0
56.14000 0.0
56.15000 0.0
56.16000 0.0
56.17000 0.0
56.18000 0.0
56.19000 2.0
56.20000 2.0
56.21000 2.0
56.22000 0.0
56.23000 0.0
56.24000 1.0
56.25000 0.0
56.26000 0.0
56.27000 1.0
56.28000 1.0
56.29000 0.0
56.30000 1.0
56.31000 1.0
56.32000 0.0
56.33000 0.0
56.34000 2.0
56.35000 2.0
56.36000 1.0
56.37000 1.0
56.38000 1.0
56.39000 0.0
56.40000 2.0
56.41000 0.0
56.42000 1.0
56.43000 1.0
56.44000 0.0
56.45000 2.0
56.46000 0.0
56.47000 0.0
56.48000 0.0
56.49000 0.0
56.50000 0.0
56.51000 0.0
56.52000 0.0
56.53000 1.0
56.54000 0.0
56.55000 0.0
56.56000 0.0
56.57000 2.0
56.58000 3.0
56.59000 2.0
56.60000 0.0
56.61000 1.0
56.62000 0.0
56.63000 1.0
56.64000 0.0
56.65000 2.0
56.66000 2.0
56.67000 1.0
56.68000 0.0
56.69000 0.0
56.70000 0.0
56.71000 1.0
56.72000 0.0
56.73000 1.0
56.74000 1.0
56.75000 1.0
56.76000 1.0
56.77000 0.0
56.78000 1.0
56.79000 2.0
56.80000 0.0
56.81000 1.0
56.82000 0.0
56.83000 0.0
56.84000 1.0
56.85000 1.0
56.86000 0.0
56.87000 0.0
56.88000 0.0
56.89000 1.0
56.90000 0.0
56.91000 2.0
56.92000 0.0
56.93000 0.0
56.94000 2.0
56.95000 1.0
56.96000 1.0
56.97000 0.0
56.98000 0.0
56.99000 1.0
57.00000 0.0
57.01000 0.0
57.02000 1.0
57.03000 2.0
57.04000 0.0
57.05000 4.0
57.06000 0.0
57.07000 0.0
57.08000 0.0
57.09000 1.0
57.10000 1.0
57.11000 1.0
57.12000 2.0
57.13000 2.0
57.14000 0.0
57.15000 0.0
57.16000 0.0
57.17000 1.0
57.18000 1.0
57.19000 1.0
57.20000 1.0
57.21000 1.0
57.22000 0.0
57.23000 0.0
57.24000 0.0
57.25000 2.0
57.26000 3.0
57.27000 1.0
57.28000 0.0
57.29000 2.0
57.30000 1.0
57.31000 2.0
57.32000 0.0
57.33000 0.0
57.34000 0.0
57.35000 1.0
57.36000 0.0
57.37000 0.0
57.38000 1.0
57.39000 0.0
57.40000 0.0
57.41000 1.0
57.42000 0.0
57.43000 0.0
57.44000 1.0
57.45000 0.0
57.46000 1.0
57.47000 0.0
57.48000 1.0
57.49000 1.0
57.50000 0.0
57.51000 0.0
57.52000 0.0
57.53000 1.0
57.54000 2.0
57.55000 1.0
57.56000 1.0
57.57000 1.0
57.58000 0.0
57.59000 0.0
57.60000 0.0
57.61000 0.0
57.62000 1.0
57.63000 1.0
57.64000 0.0
57.65000 2.0
57.66000 4.0
57.67000 1.0
57.68000 1.0
57.69000 2.0
57.70000 1.0
57.71000 0.0
57.72000 2.0
57.73000 1.0
57.74000 0.0
57.75000 2.0
57.76000 2.0
57.77000 0.0
57.78000 1.0
57.79000 0.0
57.80000 0.0
57.81000 1.0
57.82000 0.0
57.83000 1.0
57.84000 0.0
57.85000 1.0
57.86000 0.0
57.87000 0.0
57.88000 1.0
57.89000 0.0
57.90000 1.0
57.91000 0.0
57.92000 1.0
57.93000 1.0
57.94000 1.0
57.95000 0.0
57.96000 0.0
57.97000 1.0
57.98000 1.0
57.99000 0.0
58.00000 0.0
58.01000 0.0
58.02000 0.0
58.03000 0.0
58.04000 0.0
58.05000 0.0
58.06000 3.0
58.07000 1.0
58.08000 0.0
58.09000 0.0
58.10000 0.0
58.11000 0.0
58.12000 1.0
58.13000 1.0
58.14000 0.0
58.15000 2.0
58.16000 0.0
58.17000 1.0
58.18000 1.0
58.19000 2.0
58.20000 2.0
58.21000 0.0
58.22000 0.0
58.23000 0.0
58.24000 0.0
58.25000 0.0
58.26000 0.0
58.27000 1.0
58.28000 0.0
58.29000 0.0
58.30000 0.0
58.31000 1.0
58.32000 1.0
58.33000 0.0
58.34000 1.0
58.35000 1.0
58.36000 1.0
58.37000 2.0
58.38000 1.0
58.39000 2.0
58.40000 2.0
58.41000 1.0
58.42000 0.0
58.43000 0.0
58.44000 0.0
58.45000 0.0
58.46000 0.0
58.47000 2.0
58.48000 1.0
58.49000 0.0
58.50000 0.0
58.51000 0.0
58.52000 0.0
58.53000 2.0
58.54000 0.0
58.55000 1.0
58.56000 1.0
58.57000 0.0
58.58000 0.0
58.59000 1.0
58.60000 0.0
58.61000 0.0
58.62000 2.0
58.63000 0.0
58.64000 0.0
58.65000 0.0
58.66000 2.0
58.67000 1.0
58.68000 1.0
58.69000 2.0
58.70000 1.0
58.71000 1.0
58.72000 1.0
58.73000 1.0
58.74000 3.0
58.75000 2.0
58.76000 0.0
58.77000 0.0
58.78000 1.0
58.79000 0.0
58.80000 3.0
58.81000 0.0
58.82000 0.0
58.83000 0.0
58.84000 2.0
58.85000 0.0
58.86000 0.0
58.87000 0.0
58.88000 0.0
58.89000 0.0
58.90000 1.0
58.91000 0.0
58.92000 1.0
58.93000 1.0
58.94000 1.0
58.95000 0.0
58.96000 0.0
58.97000 1.0
58.98000 0.0
58.99000 2.0
59.00000 1.0
59.01000 1.0
59.02000 0.0
59.03000 0.0
59.04000 0.0
59.05000 0.0
59.06000 1.0
59.07000 0.0
59.08000 1.0
59.09000 0.0
59.10000 1.0
59.11000 0.0
59.12000 0.0
59.13000 0.0
59.14000 2.0
59.15000 1.0
59.16000 1.0
59.17000 0.0
59.18000 0.0
59.19000 0.0
59.20000 1.0
59.21000 0.0
59.22000 1.0
59.23000 1.0
59.24000 0.0
59.25000 1.0
59.26000 0.0
59.27000 0.0
59.28000 0.0
59.29000 1.0
59.30000 0.0
59.31000 0.0
59.32000 1.0
59.33000 0.0
59.34000 1.0
59.35000 0.0
59.36000 1.0
59.37000 0.0
59.38000 0.0
59.39000 0.0
59.40000 0.0
59.41000 1.0
59.42000 0.0
59.43000 1.0
59.44000 0.0
59.45000 0.0
59.46000 0.0
59.47000 0.0
59.48000 1.0
59.49000 1.0
59.50000 0.0
59.51000 0.0
59.52000 0.0
59.53000 1.0
59.54000 0.0
59.55000 1.0
59.56000 1.0
59.57000 1.0
59.58000 1.0
59.59000 1.0
59.60000 1.0
59.61000 2.0
59.62000 0.0
59.63000 1.0
59.64000 4.0
59.65000 0.0
59.66000 0.0
59.67000 0.0
59.68000 1.0
59.69000 0.0
59.70000 0.0
59.71000 1.0
59.72000 0.0
59.73000 1.0
59.74000 0.0
59.75000 2.0
59.76000 1.0
59.77000 0.0
59.78000 0.0
59.79000 3.0
59.80000 1.0
59.81000 0.0
59.82000 0.0
59.83000 1.0
59.84000 1.0
59.85000 0.0
59.86000 1.0
59.87000 1.0
59.88000 1.0
59.89000 1.0
59.90000 0.0
59.91000 0.0
59.92000 0.0
59.93000 0.0
59.94000 1.0
59.95000 1.0
59.96000 0.0
59.97000 0.0
59.98000 0.0
59.99000 0.0
60.00000 1.0
60.01000 0.0
60.02000 0.0
60.03000 0.0
60.04000 2.0
60.05000 2.0
60.06000 2.0
60.07000 3.0
60.08000 1.0
60.09000 1.0
60.10000 1.0
60.11000 3.0
60.12000 2.0
60.13000 1.0
60.14000 1.0
60.15000 2.0
60.16000 2.0
60.17000 0.0
60.18000 1.0
60.19000 4.0
60.20000 0.0
60.21000 3.0
60.22000 1.0
60.23000 0.0
60.24000 0.0
60.25000 0.0
60.26000 0.0
60.27000 1.0
60.28000 2.0
60.29000 1.0
60.30000 1.0
60.31000 1.0
60.32000 0.0
60.33000 1.0
60.34000 0.0
60.35000 2.0
60.36000 0.0
60.37000 1.0
60.38000 0.0
60.39000 2.0
60.40000 3.0
60.41000 2.0
60.42000 1.0
60.43000 0.0
60.44000 3.0
60.45000 1.0
60.46000 0.0
60.47000 1.0
60.48000 2.0
60.49000 0.0
60.50000 1.0
60.51000 0.0
60.52000 0.0
60.53000 0.0
60.54000 0.0
60.55000 0.0
60.56000 1.0
60.57000 0.0
60.58000 0.0
60.59000 2.0
60.60000 1.0
60.61000 0.0
60.62000 0.0
60.63000 0.0
60.64000 0.0
60.65000 0.0
60.66000 1.0
60.67000 1.0
60.68000 2.0
60.69000 1.0
60.70000 1.0
60.71000 0.0
60.72000 1.0
60.73000 2.0
60.74000 2.0
60.75000 2.0
60.76000 3.0
60.77000 1.0
60.78000 1.0
60.79000 3.0
60.80000 1.0
60.81000 0.0
60.82000 3.0
60.83000 2.0
60.84000 3.0
60.85000 2.0
60.86000 0.0
60.87000 1.0
60.88000 1.0
60.89000 0.0
60.90000 0.0
60.91000 1.0
60.92000 1.0
60.93000 2.0
60.94000 1.0
60.95000 1.0
60.96000 1.0
60.97000 2.0
60.98000 0.0
60.99000 0.0
61.00000 1.0
61.01000 2.0
61.02000 0.0
61.03000 0.0
61.04000 1.0
61.05000 1.0
61.06000 0.0
61.07000 0.0
61.08000 0.0
61.09000 1.0
61.10000 0.0
61.11000 0.0
61.12000 1.0
61.13000 0.0
61.14000 2.0
61.15000 0.0
61.16000 0.0
61.17000 0.0
61.18000 1.0
61.19000 1.0
61.20000 2.0
61.21000 0.0
61.22000 0.0
61.23000 0.0
61.24000 2.0
61.25000 0.0
61.26000 1.0
61.27000 2.0
61.28000 0.0
61.29000 1.0
61.30000 0.0
61.31000 0.0
61.32000 3.0
61.33000 0.0
61.34000 2.0
61.35000 0.0
61.36000 0.0
61.37000 0.0
61.38000 0.0
61.39000 0.0
61.40000 2.0
61.41000 1.0
61.42000 0.0
61.43000 0.0
61.44000 0.0
61.45000 1.0
61.46000 0.0
61.47000 0.0
61.48000 0.0
61.49000 1.0
61.50000 0.0
61.51000 2.0
61.52000 2.0
61.53000 0.0
61.54000 2.0
61.55000 1.0
61.56000 1.0
61.57000 0.0
61.58000 1.0
61.59000 3.0
61.60000 0.0
61.61000 1.0
61.62000 2.0
61.63000 0.0
61.64000 0.0
61.65000 2.0
61.66000 1.0
61.67000 1.0
61.68000 0.0
61.69000 1.0
61.70000 1.0
61.71000 0.0
61.72000 0.0
61.73000 0.0
61.74000 0.0
61.75000 2.0
61.76000 1.0
61.77000 0.0
61.78000 1.0
61.79000 1.0
61.80000 0.0
61.81000 2.0
61.82000 2.0
61.83000 1.0
61.84000 1.0
61.85000 0.0
61.86000 1.0
61.87000 0.0
61.88000 0.0
61.89000 1.0
61.90000 1.0
61.91000 2.0
61.92000 0.0
61.93000 1.0
61.94000 1.0
61.95000 1.0
61.96000 1.0
61.97000 0.0
61.98000 1.0
61.99000 1.0
62.00000 2.0
62.01000 2.0
62.02000 1.0
62.03000 0.0
62.04000 1.0
62.05000 3.0
62.06000 0.0
62.07000 3.0
62.08000 2.0
62.09000 0.0
62.10000 2.0
62.11000 0.0
62.12000 0.0
62.13000 1.0
62.14000 1.0
62.15000 1.0
62.16000 0.0
62.17000 0.0
62.18000 1.0
62.19000 0.0
62.20000 1.0
62.21000 0.0
62.22000 0.0
62.23000 1.0
62.24000 0.0
62.25000 3.0
62.26000 1.0
62.27000 0.0
62.28000 2.0
62.29000 1.0
62.30000 1.0
62.31000 1.0
62.32000 1.0
62.33000 1.0
62.34000 2.0
62.35000 2.0
62.36000 1.0
62.37000 1.0
62.38000 1.0
62.39000 1.0
62.40000 2.0
62.41000 0.0
62.42000 0.0
62.43000 1.0
62.44000 0.0
62.45000 3.0
62.46000 0.0
62.47000 0.0
62.48000 2.0
62.49000 0.0
62.50000 1.0
62.51000 2.0
62.52000 0.0
62.53000 1.0
62.54000 0.0
62.55000 6.0
62.56000 0.0
62.57000 0.0
62.58000 1.0
62.59000 0.0
62.60000 1.0
62.61000 5.0
62.62000 1.0
62.63000 1.0
62.64000 0.0
62.65000 0.0
62.66000 0.0
62.67000 2.0
62.68000 1.0
62.69000 2.0
62.70000 3.0
62.71000 1.0
62.72000 2.0
62.73000 1.0
62.74000 2.0
62.75000 1.0
62.76000 3.0
62.77000 2.0
62.78000 1.0
62.79000 1.0
62.80000 3.0
62.81000 1.0
62.82000 4.0
62.83000 2.0
62.84000 0.0
62.85000 1.0
62.86000 4.0
62.87000 2.0
62.88000 0.0
62.89000 2.0
62.90000 5.0
62.91000 1.0
62.92000 2.0
62.93000 1.0
62.94000 3.0
62.95000 3.0
62.96000 1.0
62.97000 2.0
62.98000 2.0
62.99000 2.0
63.00000 1.0
63.01000 3.0
63.02000 5.0
63.03000 2.0
63.04000 2.0
63.05000 3.0
63.06000 1.0
63.07000 3.0
63.08000 4.0
63.09000 2.0
63.10000 1.0
63.11000 1.0
63.12000 2.0
63.13000 2.0
63.14000 0.0
63.15000 1.0
63.16000 3.0
63.17000 2.0
63.18000 1.0
63.19000 0.0
63.20000 2.0
63.21000 3.0
63.22000 3.0
63.23000 1.0
63.24000 2.0
63.25000 3.0
63.26000 2.0
63.27000 1.0
63.28000 2.0
63.29000 2.0
63.30000 3.0
63.31000 1.0
63.32000 3.0
63.33000 0.0
63.34000 1.0
63.35000 1.0
63.36000 0.0
63.37000 2.0
63.38000 1.0
63.39000 3.0
63.40000 3.0
63.41000 0.0
63.42000 5.0
63.43000 3.0
63.44000 5.0
63.45000 2.0
63.46000 0.0
63.47000 1.0
63.48000 0.0
63.49000 4.0
63.50000 3.0
63.51000 2.0
63.52000 5.0
63.53000 2.0
63.54000 2.0
63.55000 2.0
63.56000 5.0
63.57000 2.0
63.58000 2.0
63.59000 0.0
63.60000 5.0
63.61000 5.0
63.62000 4.0
63.63000 2.0
63.64000 5.0
63.65000 1.0
63.66000 4.0
63.67000 4.0
63.68000 3.0
63.69000 3.0
63.70000 4.0
63.71000 3.0
63.72000 5.0
63.73000 7.0
63.74000 0.0
63.75000 7.0
63.76000 3.0
63.77000 3.0
63.78000 2.0
63.79000 0.0
63.80000 4.0
63.81000 3.0
63.82000 5.0
63.83000 2.0
63.84000 5.0
63.85000 5.0
63.86000 5.0
63.87000 6.0
63.88000 7.0
63.89000 2.0
63.90000 5.0
63.91000 3.0
63.92000 3.0
63.93000 4.0
63.94000 3.0
63.95000 4.0
63.96000 4.0
63.97000 2.0
63.98000 6.0
63.99000 4.0
64.00000 4.0
64.01000 5.0
64.02000 5.0
64.03000 6.0
64.04000 6.0
64.05000 6.0
64.06000 5.0
64.07000 3.0
64.08000 5.0
64.09000 9.0
64.10000 5.0
64.11000 6.0
64.12000 13.0
64.13000 6.0
64.14000 11.0
64.15000 6.0
64.16000 8.0
64.17000 4.0
64.18000 3.0
64.19000 6.0
64.20000 10.0
64.21000 6.0
64.22000 6.0
64.23000 2.0
64.24000 11.0
64.25000 5.0
64.26000 14.0
64.27000 12.0
64.28000 11.0
64.29000 9.0
64.30000 17.0
64.31000 15.0
64.32000 10.0
64.33000 10.0
64.34000 13.0
64.35000 11.0
64.36000 8.0
64.37000 14.0
64.38000 16.0
64.39000 14.0
64.40000 19.0
64.41000 11.0
64.42000 11.0
64.43000 17.0
64.44000 15.0
64.45000 19.0
64.46000 22.0
64.47000 16.0
64.48000 18.0
64.49000 24.0
64.50000 30.0
64.51000 34.0
64.52000 23.0
64.53000 27.0
64.54000 36.0
64.55000 29.0
64.56000 37.0
64.57000 36.0
64.58000 36.0
64.59000 47.0
64.60000 44.0
64.61000 44.0
64.62000 49.0
64.63000 53.0
64.64000 56.0
64.65000 71.0
64.66000 81.0
64.67000 83.0
64.68000 83.0
64.69000 92.0
64.70000 81.0
64.71000 81.0
64.72000 90.0
64.73000 109.0
64.74000 106.0
64.75000 133.0
64.76000 125.0
64.77000 150.0
64.78000 158.0
64.79000 147.0
64.80000 195.0
64.81000 199.0
64.82000 214.0
64.83000 212.0
64.84000 267.0
64.85000 255.0
64.86000 281.0
64.87000 325.0
64.88000 339.0
64.89000 376.0
64.90000 376.0
64.91000 405.0
64.92000 446.0
64.93000 483.0
64.94000 470.0
64.95000 460.0
64.96000 476.0
64.97000 501.0
64.98000 458.0
64.99000 443.0
65.00000 423.0
65.01000 435.0
65.02000 382.0
65.03000 400.0
65.04000 407.0
65.05000 372.0
65.06000 359.0
65.07000 328.0
65.08000 362.0
65.09000 354.0
65.10000 337.0
65.11000 317.0
65.12000 313.0
65.13000 302.0
65.14000 275.0
65.15000 257.0
65.16000 277.0
65.17000 245.0
65.18000 245.0
65.19000 221.0
65.20000 215.0
65.21000 190.0
65.22000 169.0
65.23000 137.0
65.24000 151.0
65.25000 112.0
65.26000 127.0
65.27000 96.0
65.28000 97.0
65.29000 79.0
65.30000 71.0
65.31000 62.0
65.32000 61.0
65.33000 68.0
65.34000 43.0
65.35000 43.0
65.36000 50.0
65.37000 39.0
65.38000 35.0
65.39000 33.0
65.40000 37.0
65.41000 40.0
65.42000 23.0
65.43000 26.0
65.44000 26.0
65.45000 24.0
65.46000 18.0
65.47000 24.0
65.48000 17.0
65.49000 17.0
65.50000 19.0
65.51000 14.0
65.52000 20.0
65.53000 15.0
65.54000 23.0
65.55000 11.0
65.56000 15.0
65.57000 9.0
65.58000 13.0
65.59000 12.0
65.60000 16.0
65.61000 10.0
65.62000 8.0
65.63000 17.0
65.64000 10.0
65.65000 11.0
65.66000 10.0
65.67000 7.0
65.68000 9.0
65.69000 11.0
65.70000 11.0
65.71000 10.0
65.72000 6.0
65.73000 4.0
65.74000 7.0
65.75000 10.0
65.76000 5.0
65.77000 9.0
65.78000 3.0
65.79000 5.0
65.80000 5.0
65.81000 6.0
65.82000 7.0
65.83000 4.0
65.84000 4.0
65.85000 4.0
65.86000 9.0
65.87000 13.0
65.88000 9.0
65.89000 7.0
65.90000 10.0
65.91000 4.0
65.92000 5.0
65.93000 7.0
65.94000 7.0
65.95000 6.0
65.96000 4.0
65.97000 5.0
65.98000 4.0
65.99000 11.0
66.00000 4.0
66.01000 5.0
66.02000 3.0
66.03000 4.0
66.04000 6.0
66.05000 0.0
66.06000 6.0
66.07000 6.0
66.08000 3.0
66.09000 3.0
66.10000 5.0
66.11000 5.0
66.12000 3.0
66.13000 2.0
66.14000 6.0
66.15000 6.0
66.16000 3.0
66.17000 2.0
66.18000 8.0
66.19000 4.0
66.20000 5.0
66.21000 1.0
66.22000 7.0
66.23000 4.0
66.24000 5.0
66.25000 9.0
66.26000 5.0
66.27000 3.0
66.28000 8.0
66.29000 8.0
66.30000 2.0
66.31000 7.0
66.32000 5.0
66.33000 3.0
66.34000 2.0
66.35000 4.0
66.36000 6.0
66.37000 4.0
66.38000 4.0
66.39000 4.0
66.40000 6.0
66.41000 5.0
66.42000 5.0
66.43000 4.0
66.44000 7.0
66.45000 10.0
66.46000 6.0
66.47000 3.0
66.48000 3.0
66.49000 5.0
66.50000 6.0
66.51000 5.0
66.52000 3.0
66.53000 7.0
66.54000 11.0
66.55000 10.0
66.56000 5.0
66.57000 5.0
66.58000 5.0
66.59000 4.0
66.60000 11.0
66.61000 10.0
66.62000 3.0
66.63000 7.0
66.64000 3.0
66.65000 8.0
66.66000 4.0
66.67000 10.0
66.68000 6.0
66.69000 5.0
66.70000 3.0
66.71000 2.0
66.72000 7.0
66.73000 4.0
66.74000 8.0
66.75000 8.0
66.76000 4.0
66.77000 7.0
66.78000 6.0
66.79000 4.0
66.80000 8.0
66.81000 5.0
66.82000 5.0
66.83000 4.0
66.84000 8.0
66.85000 8.0
66.86000 12.0
66.87000 7.0
66.88000 11.0
66.89000 7.0
66.90000 7.0
66.91000 9.0
66.92000 7.0
66.93000 12.0
66.94000 10.0
66.95000 9.0
66.96000 6.0
66.97000 13.0
66.98000 7.0
66.99000 9.0
67.00000 12.0
67.01000 5.0
67.02000 8.0
67.03000 7.0
67.04000 10.0
67.05000 9.0
67.06000 7.0
67.07000 10.0
67.08000 15.0
67.09000 13.0
67.10000 15.0
67.11000 11.0
67.12000 11.0
67.13000 8.0
67.14000 12.0
67.15000 5.0
67.16000 22.0
67.17000 17.0
67.18000 13.0
67.19000 8.0
67.20000 16.0
67.21000 18.0
67.22000 22.0
67.23000 15.0
67.24000 12.0
67.25000 24.0
67.26000 15.0
67.27000 21.0
67.28000 17.0
67.29000 19.0
67.30000 19.0
67.31000 28.0
67.32000 25.0
67.33000 16.0
67.34000 19.0
67.35000 20.0
67.36000 22.0
67.37000 18.0
67.38000 22.0
67.39000 30.0
67.40000 28.0
67.41000 15.0
67.42000 30.0
67.43000 26.0
67.44000 23.0
67.45000 42.0
67.46000 35.0
67.47000 25.0
67.48000 26.0
67.49000 38.0
67.50000 31.0
67.51000 41.0
67.52000 36.0
67.53000 36.0
67.54000 34.0
67.55000 42.0
67.56000 39.0
67.57000 51.0
67.58000 42.0
67.59000 41.0
67.60000 43.0
67.61000 48.0
67.62000 54.0
67.63000 41.0
67.64000 56.0
67.65000 55.0
67.66000 49.0
67.67000 55.0
67.68000 62.0
67.69000 75.0
67.70000 57.0
67.71000 64.0
67.72000 77.0
67.73000 67.0
67.74000 78.0
67.75000 110.0
67.76000 90.0
67.77000 105.0
67.78000 103.0
67.79000 108.0
67.80000 157.0
67.81000 174.0
67.82000 184.0
67.83000 209.0
67.84000 194.0
67.85000 277.0
67.86000 305.0
67.87000 323.0
67.88000 403.0
67.89000 444.0
67.90000 430.0
67.91000 451.0
67.92000 411.0
67.93000 430.0
67.94000 452.0
67.95000 418.0
67.96000 470.0
67.97000 426.0
67.98000 487.0
67.99000 445.0
68.00000 477.0
68.01000 514.0
68.02000 524.0
68.03000 579.0
68.04000 628.0
68.05000 747.0
68.06000 826.0
68.07000 915.0
68.08000 1035.0
68.09000 1313.0
68.10000 1443.0
68.11000 1725.0
68.12000 2313.0
68.13000 2979.0
68.14000 4066.0
68.15000 6245.0
68.16000 11249.0
68.17000 20434.0
68.18000 32685.0
68.19000 38371.0
68.20000 33978.0
68.21000 24064.0
68.22000 15107.0
68.23000 9355.0
68.24000 6124.0
68.25000 4115.0
68.26000 2904.0
68.27000 2410.0
68.28000 1920.0
68.29000 1855.0
68.30000 1772.0
68.31000 1951.0
68.32000 2150.0
68.33000 2609.0
68.34000 3614.0
68.35000 5430.0
68.36000 9094.0
68.37000 14370.0
68.38000 18379.0
68.39000 19157.0
68.40000 15412.0
68.41000 10909.0
68.42000 7054.0
68.43000 4489.0
68.44000 3067.0
68.45000 2146.0
68.46000 1664.0
68.47000 1274.0
68.48000 1072.0
68.49000 941.0
68.50000 801.0
68.51000 665.0
68.52000 562.0
68.53000 569.0
68.54000 464.0
68.55000 478.0
68.56000 421.0
68.57000 413.0
68.58000 369.0
68.59000 413.0
68.60000 344.0
68.61000 346.0
68.62000 352.0
68.63000 329.0
68.64000 306.0
68.65000 292.0
68.66000 231.0
68.67000 278.0
68.68000 221.0
68.69000 197.0
68.70000 201.0
68.71000 187.0
68.72000 170.0
68.73000 145.0
68.74000 121.0
68.75000 142.0
68.76000 138.0
68.77000 134.0
68.78000 122.0
68.79000 131.0
68.80000 119.0
68.81000 119.0
68.82000 99.0
68.83000 122.0
68.84000 104.0
68.85000 103.0
68.86000 111.0
68.87000 86.0
68.88000 102.0
68.89000 87.0
68.90000 77.0
68.91000 79.0
68.92000 74.0
68.93000 82.0
68.94000 76.0
68.95000 74.0
68.96000 74.0
68.97000 69.0
68.98000 82.0
68.99000 75.0
69.00000 88.0
69.01000 60.0
69.02000 70.0
69.03000 70.0
69.04000 70.0
69.05000 72.0
69.06000 66.0
69.07000 63.0
69.08000 52.0
69.09000 57.0
69.10000 76.0
69.11000 77.0
69.12000 61.0
69.13000 58.0
69.14000 60.0
69.15000 57.0
69.16000 53.0
69.17000 64.0
69.18000 46.0
69.19000 37.0
69.20000 41.0
69.21000 32.0
69.22000 47.0
69.23000 35.0
69.24000 54.0
69.25000 50.0
69.26000 41.0
69.27000 50.0
69.28000 43.0
69.29000 42.0
69.30000 44.0
69.31000 48.0
69.32000 40.0
69.33000 47.0
69.34000 58.0
69.35000 40.0
69.36000 37.0
69.37000 37.0
69.38000 20.0
69.39000 44.0
69.40000 49.0
69.41000 35.0
69.42000 39.0
69.43000 34.0
69.44000 48.0
69.45000 41.0
69.46000 32.0
69.47000 39.0
69.48000 37.0
69.49000 42.0
69.50000 36.0
69.51000 31.0
69.52000 18.0
69.53000 29.0
69.54000 32.0
69.55000 25.0
69.56000 23.0
69.57000 29.0
69.58000 38.0
69.59000 25.0
69.60000 35.0
69.61000 23.0
69.62000 20.0
69.63000 22.0
69.64000 22.0
69.65000 30.0
69.66000 17.0
69.67000 27.0
69.68000 30.0
69.69000 16.0
69.70000 23.0
69.71000 19.0
69.72000 18.0
69.73000 19.0
69.74000 22.0
69.75000 23.0
69.76000 20.0
69.77000 26.0
69.78000 23.0
69.79000 23.0
69.80000 19.0
69.81000 25.0
69.82000 26.0
69.83000 19.0
69.84000 23.0
69.85000 21.0
69.86000 21.0
69.87000 18.0
69.88000 14.0
69.89000 23.0
69.90000 14.0
69.91000 17.0
69.92000 21.0
69.93000 21.0
69.94000 16.0
69.95000 20.0
69.96000 15.0
69.97000 20.0
69.98000 12.0
69.99000 15.0
70.00000 22.0
70.01000 15.0
70.02000 19.0
70.03000 21.0
70.04000 13.0
70.05000 13.0
70.06000 13.0
70.07000 16.0
70.08000 5.0
70.09000 18.0
70.10000 15.0
70.11000 13.0
70.12000 14.0
70.13000 16.0
70.14000 13.0
70.15000 11.0
70.16000 17.0
70.17000 13.0
70.18000 14.0
70.19000 14.0
70.20000 13.0
70.21000 10.0
70.22000 8.0
70.23000 9.0
70.24000 16.0
70.25000 15.0
70.26000 6.0
70.27000 14.0
70.28000 7.0
70.29000 8.0
70.30000 12.0
70.31000 4.0
70.32000 7.0
70.33000 7.0
70.34000 17.0
70.35000 8.0
70.36000 15.0
70.37000 16.0
70.38000 6.0
70.39000 11.0
70.40000 10.0
70.41000 6.0
70.42000 9.0
70.43000 7.0
70.44000 7.0
70.45000 8.0
70.46000 15.0
70.47000 8.0
70.48000 11.0
70.49000 9.0
70.50000 7.0
70.51000 9.0
70.52000 8.0
70.53000 8.0
70.54000 12.0
70.55000 5.0
70.56000 6.0
70.57000 9.0
70.58000 8.0
70.59000 13.0
70.60000 6.0
70.61000 16.0
70.62000 7.0
70.63000 2.0
70.64000 7.0
70.65000 6.0
70.66000 3.0
70.67000 4.0
70.68000 6.0
70.69000 9.0
70.70000 5.0
70.71000 9.0
70.72000 6.0
70.73000 7.0
70.74000 7.0
70.75000 6.0
70.76000 1.0
70.77000 5.0
70.78000 5.0
70.79000 12.0
70.80000 3.0
70.81000 4.0
70.82000 3.0
70.83000 3.0
70.84000 8.0
70.85000 6.0
70.86000 5.0
70.87000 4.0
70.88000 5.0
70.89000 3.0
70.90000 8.0
70.91000 3.0
70.92000 5.0
70.93000 4.0
70.94000 3.0
70.95000 6.0
70.96000 1.0
70.97000 2.0
70.98000 6.0
70.99000 5.0
71.00000 6.0
71.01000 7.0
71.02000 3.0
71.03000 2.0
71.04000 7.0
71.05000 5.0
71.06000 4.0
71.07000 2.0
71.08000 4.0
71.09000 3.0
71.10000 4.0
71.11000 1.0
71.12000 6.0
71.13000 4.0
71.14000 3.0
71.15000 1.0
71.16000 5.0
71.17000 1.0
71.18000 5.0
71.19000 3.0
71.20000 1.0
71.21000 8.0
71.22000 5.0
71.23000 5.0
71.24000 1.0
71.25000 3.0
71.26000 2.0
71.27000 2.0
71.28000 6.0
71.29000 2.0
71.30000 0.0
71.31000 4.0
71.32000 1.0
71.33000 1.0
71.34000 4.0
71.35000 4.0
71.36000 1.0
71.37000 5.0
71.38000 3.0
71.39000 5.0
71.40000 1.0
71.41000 4.0
71.42000 3.0
71.43000 3.0
71.44000 2.0
71.45000 2.0
71.46000 2.0
71.47000 3.0
71.48000 5.0
71.49000 3.0
71.50000 2.0
71.51000 1.0
71.52000 3.0
71.53000 1.0
71.54000 2.0
71.55000 2.0
71.56000 2.0
71.57000 0.0
71.58000 3.0
71.59000 2.0
71.60000 2.0
71.61000 2.0
71.62000 4.0
71.63000 2.0
71.64000 1.0
71.65000 1.0
71.66000 2.0
71.67000 3.0
71.68000 2.0
71.69000 5.0
71.70000 2.0
71.71000 0.0
71.72000 2.0
71.73000 1.0
71.74000 5.0
71.75000 0.0
71.76000 2.0
71.77000 3.0
71.78000 3.0
71.79000 0.0
71.80000 1.0
71.81000 1.0
71.82000 3.0
71.83000 3.0
71.84000 2.0
71.85000 4.0
71.86000 2.0
71.87000 1.0
71.88000 2.0
71.89000 0.0
71.90000 4.0
71.91000 2.0
71.92000 3.0
71.93000 4.0
71.94000 0.0
71.95000 3.0
71.96000 3.0
71.97000 1.0
71.98000 3.0
71.99000 1.0
72.00000 2.0
72.01000 1.0
72.02000 2.0
72.03000 0.0
72.04000 4.0
72.05000 2.0
72.06000 2.0
72.07000 4.0
72.08000 2.0
72.09000 2.0
72.10000 0.0
72.11000 0.0
72.12000 0.0
72.13000 1.0
72.14000 0.0
72.15000 2.0
72.16000 3.0
72.17000 2.0
72.18000 2.0
72.19000 1.0
72.20000 4.0
72.21000 1.0
72.22000 0.0
72.23000 3.0
72.24000 2.0
72.25000 1.0
72.26000 3.0
72.27000 0.0
72.28000 2.0
72.29000 2.0
72.30000 1.0
72.31000 1.0
72.32000 0.0
72.33000 3.0
72.34000 0.0
72.35000 1.0
72.36000 1.0
72.37000 0.0
72.38000 1.0
72.39000 1.0
72.40000 0.0
72.41000 2.0
72.42000 0.0
72.43000 1.0
72.44000 2.0
72.45000 2.0
72.46000 1.0
72.47000 3.0
72.48000 2.0
72.49000 5.0
72.50000 1.0
72.51000 3.0
72.52000 1.0
72.53000 1.0
72.54000 1.0
72.55000 1.0
72.56000 2.0
72.57000 0.0
72.58000 3.0
72.59000 2.0
72.60000 4.0
72.61000 2.0
72.62000 2.0
72.63000 0.0
72.64000 1.0
72.65000 0.0
72.66000 1.0
72.67000 2.0
72.68000 0.0
72.69000 0.0
72.70000 3.0
72.71000 0.0
72.72000 1.0
72.73000 2.0
72.74000 1.0
72.75000 2.0
72.76000 0.0
72.77000 1.0
72.78000 1.0
72.79000 4.0
72.80000 1.0
72.81000 0.0
72.82000 0.0
72.83000 1.0
72.84000 1.0
72.85000 2.0
72.86000 1.0
72.87000 3.0
72.88000 2.0
72.89000 0.0
72.90000 2.0
72.91000 0.0
72.92000 0.0
72.93000 1.0
72.94000 2.0
72.95000 5.0
72.96000 1.0
72.97000 4.0
72.98000 4.0
72.99000 3.0
73.00000 0.0
73.01000 0.0
73.02000 2.0
73.03000 1.0
73.04000 1.0
73.05000 2.0
73.06000 1.0
73.07000 1.0
73.08000 2.0
73.09000 1.0
73.10000 3.0
73.11000 1.0
73.12000 3.0
73.13000 1.0
73.14000 1.0
73.15000 0.0
73.16000 0.0
73.17000 1.0
73.18000 2.0
73.19000 0.0
73.20000 0.0
73.21000 0.0
73.22000 1.0
73.23000 1.0
73.24000 4.0
73.25000 1.0
73.26000 2.0
73.27000 4.0
73.28000 1.0
73.29000 3.0
73.30000 0.0
73.31000 0.0
73.32000 1.0
73.33000 2.0
73.34000 0.0
73.35000 2.0
73.36000 1.0
73.37000 1.0
73.38000 2.0
73.39000 1.0
73.40000 2.0
73.41000 1.0
73.42000 1.0
73.43000 1.0
73.44000 0.0
73.45000 1.0
73.46000 2.0
73.47000 1.0
73.48000 2.0
73.49000 3.0
73.50000 0.0
73.51000 1.0
73.52000 0.0
73.53000 0.0
73.54000 0.0
73.55000 2.0
73.56000 0.0
73.57000 0.0
73.58000 3.0
73.59000 3.0
73.60000 0.0
73.61000 2.0
73.62000 0.0
73.63000 2.0
73.64000 2.0
73.65000 3.0
73.66000 1.0
73.67000 1.0
73.68000 2.0
73.69000 2.0
73.70000 0.0
73.71000 1.0
73.72000 1.0
73.73000 0.0
73.74000 2.0
73.75000 1.0
73.76000 2.0
73.77000 5.0
73.78000 2.0
73.79000 2.0
73.80000 1.0
73.81000 1.0
73.82000 0.0
73.83000 2.0
73.84000 0.0
73.85000 0.0
73.86000 0.0
73.87000 2.0
73.88000 0.0
73.89000 1.0
73.90000 0.0
73.91000 2.0
73.92000 0.0
73.93000 1.0
73.94000 1.0
73.95000 1.0
73.96000 1.0
73.97000 1.0
73.98000 1.0
73.99000 1.0
74.00000 2.0
74.01000 0.0
74.02000 0.0
74.03000 0.0
74.04000 1.0
74.05000 3.0
74.06000 1.0
74.07000 1.0
74.08000 0.0
74.09000 1.0
74.10000 2.0
74.11000 0.0
74.12000 3.0
74.13000 0.0
74.14000 0.0
74.15000 1.0
74.16000 0.0
74.17000 2.0
74.18000 1.0
74.19000 2.0
74.20000 2.0
74.21000 1.0
74.22000 1.0
74.23000 3.0
74.24000 1.0
74.25000 0.0
74.26000 1.0
74.27000 1.0
74.28000 1.0
74.29000 1.0
74.30000 0.0
74.31000 5.0
74.32000 1.0
74.33000 0.0
74.34000 2.0
74.35000 2.0
74.36000 2.0
74.37000 2.0
74.38000 0.0
74.39000 1.0
74.40000 2.0
74.41000 0.0
74.42000 0.0
74.43000 0.0
74.44000 2.0
74.45000 2.0
74.46000 1.0
74.47000 0.0
74.48000 0.0
74.49000 1.0
74.50000 0.0
74.51000 0.0
74.52000 1.0
74.53000 1.0
74.54000 2.0
74.55000 0.0
74.56000 0.0
74.57000 0.0
74.58000 0.0
74.59000 0.0
74.60000 0.0
74.61000 2.0
74.62000 1.0
74.63000 0.0
74.64000 3.0
74.65000 3.0
74.66000 0.0
74.67000 2.0
74.68000 0.0
74.69000 0.0
74.70000 1.0
74.71000 1.0
74.72000 1.0
74.73000 1.0
74.74000 0.0
74.75000 0.0
74.76000 0.0
74.77000 0.0
74.78000 3.0
74.79000 6.0
74.80000 0.0
74.81000 1.0
74.82000 1.0
74.83000 0.0
74.84000 1.0
74.85000 0.0
74.86000 0.0
74.87000 2.0
74.88000 1.0
74.89000 2.0
74.90000 1.0
74.91000 1.0
74.92000 0.0
74.93000 0.0
74.94000 0.0
74.95000 1.0
74.96000 1.0
74.97000 1.0
74.98000 1.0
74.99000 1.0
