35.002061930 110.0
35.006985786 112.0
35.011909642 96.0
35.016833498 118.0
35.021757354 86.0
35.026681210 101.0
35.031605066 112.0
35.036528922 85.0
35.041452778 108.0
35.046376634 99.0
35.051300490 126.0
35.056224346 95.0
35.061148202 130.0
35.066072058 121.0
35.070995914 122.0
35.075919770 109.0
35.080843626 104.0
35.085767482 127.0
35.090691338 105.0
35.095615194 116.0
35.100539050 113.0
35.105462906 121.0
35.110386762 106.0
35.115310618 122.0
35.120234474 131.0
35.125158330 97.0
35.130082186 112.0
35.135006042 107.0
35.139929898 106.0
35.144853754 102.0
35.149777610 111.0
35.154701466 120.0
35.159625322 122.0
35.164549178 87.0
35.169473034 103.0
35.174396890 109.0
35.179320746 118.0
35.184244602 135.0
35.189168458 118.0
35.194092314 108.0
35.199016170 106.0
35.203940026 93.0
35.208863882 118.0
35.213787738 123.0
35.218711594 119.0
35.223635450 103.0
35.228559306 108.0
35.233483162 104.0
35.238407018 130.0
35.243330874 109.0
35.248254730 85.0
35.253178587 133.0
35.258102443 117.0
35.263026299 115.0
35.267950155 101.0
35.272874011 123.0
35.277797867 105.0
35.282721723 113.0
35.287645579 126.0
35.292569435 108.0
35.297493291 117.0
35.302417147 110.0
35.307341003 99.0
35.312264859 119.0
35.317188715 114.0
35.322112571 113.0
35.327036427 105.0
35.331960283 118.0
35.336884139 102.0
35.341807995 111.0
35.346731851 86.0
35.351655707 117.0
35.356579563 113.0
35.361503419 121.0
35.366427275 114.0
35.371351131 102.0
35.376274987 104.0
35.381198843 119.0
35.386122699 104.0
35.391046555 111.0
35.395970411 114.0
35.400894267 96.0
35.405818123 110.0
35.410741979 131.0
35.415665835 103.0
35.420589691 109.0
35.425513547 104.0
35.430437403 115.0
35.435361259 99.0
35.440285115 127.0
35.445208971 102.0
35.450132827 118.0
35.455056683 100.0
35.459980539 102.0
35.464904395 108.0
35.469828251 107.0
35.474752107 116.0
35.479675963 117.0
35.484599819 116.0
35.489523675 111.0
35.494447531 91.0
35.499371387 120.0
35.504295243 124.0
35.509219099 107.0
35.514142955 98.0
35.519066811 105.0
35.523990667 120.0
35.528914523 108.0
35.533838379 130.0
35.538762235 114.0
35.543686091 120.0
35.548609947 102.0
35.553533803 114.0
35.558457659 117.0
35.563381515 114.0
35.568305371 125.0
35.573229227 109.0
35.578153083 116.0
35.583076939 114.0
35.588000795 107.0
35.592924651 111.0
35.597848507 120.0
35.602772363 124.0
35.607696219 141.0
35.612620075 104.0
35.617543931 100.0
35.622467787 102.0
35.627391643 131.0
35.632315499 92.0
35.637239355 117.0
35.642163211 99.0
35.647087067 107.0
35.652010923 96.0
35.656934779 103.0
35.661858635 106.0
35.666782491 108.0
35.671706347 106.0
35.676630203 112.0
35.681554059 112.0
35.686477915 112.0
35.691401771 118.0
35.696325627 113.0
35.701249483 110.0
35.706173339 126.0
35.711097195 124.0
35.716021051 122.0
35.720944907 102.0
35.725868763 107.0
35.730792619 122.0
35.735716475 100.0
35.740640331 104.0
35.745564187 117.0
35.750488043 81.0
35.755411900 108.0
35.760335756 109.0
35.765259612 106.0
35.770183468 130.0
35.775107324 119.0
35.780031180 109.0
35.784955036 110.0
35.789878892 126.0
35.794802748 114.0
35.799726604 112.0
35.804650460 94.0
35.809574316 126.0
35.814498172 101.0
35.819422028 113.0
35.824345884 113.0
35.829269740 104.0
35.834193596 95.0
35.839117452 113.0
35.844041308 118.0
35.848965164 109.0
35.853889020 87.0
35.858812876 132.0
35.863736732 105.0
35.868660588 121.0
35.873584444 97.0
35.878508300 103.0
35.883432156 114.0
35.888356012 103.0
35.893279868 127.0
35.898203724 111.0
35.903127580 93.0
35.908051436 105.0
35.912975292 116.0
35.917899148 93.0
35.922823004 102.0
35.927746860 90.0
35.932670716 139.0
35.937594572 109.0
35.942518428 102.0
35.947442284 104.0
35.952366140 113.0
35.957289996 112.0
35.962213852 113.0
35.967137708 111.0
35.972061564 115.0
35.976985420 115.0
35.981909276 105.0
35.986833132 101.0
35.991756988 126.0
35.996680844 102.0
36.001604700 125.0
36.006528556 117.0
36.011452412 108.0
36.016376268 107.0
36.021300124 106.0
36.026223980 104.0
36.031147836 114.0
36.036071692 126.0
36.040995548 116.0
36.045919404 128.0
36.050843260 117.0
36.055767116 106.0
36.060690972 103.0
36.065614828 114.0
36.070538684 112.0
36.075462540 122.0
36.080386396 102.0
36.085310252 101.0
36.090234108 113.0
36.095157964 117.0
36.100081820 125.0
36.105005676 101.0
36.109929532 100.0
36.114853388 109.0
36.119777244 72.0
36.124701100 97.0
36.129624956 120.0
36.134548812 112.0
36.139472668 108.0
36.144396524 110.0
36.149320380 119.0
36.154244236 112.0
36.159168092 116.0
36.164091948 116.0
36.169015804 115.0
36.173939660 128.0
36.178863516 121.0
36.183787372 102.0
36.188711228 111.0
36.193635084 117.0
36.198558940 111.0
36.203482796 124.0
36.208406652 118.0
36.213330508 114.0
36.218254364 127.0
36.223178220 118.0
36.228102076 97.0
36.233025932 108.0
36.237949788 96.0
36.242873644 108.0
36.247797500 110.0
36.252721357 119.0
36.257645213 103.0
36.262569069 108.0
36.267492925 108.0
36.272416781 106.0
36.277340637 106.0
36.282264493 117.0
36.287188349 121.0
36.292112205 97.0
36.297036061 104.0
36.301959917 101.0
36.306883773 109.0
36.311807629 113.0
36.316731485 105.0
36.321655341 109.0
36.326579197 103.0
36.331503053 117.0
36.336426909 110.0
36.341350765 116.0
36.346274621 91.0
36.351198477 101.0
36.356122333 103.0
36.361046189 91.0
36.365970045 114.0
36.370893901 114.0
36.375817757 115.0
36.380741613 124.0
36.385665469 116.0
36.390589325 116.0
36.395513181 110.0
36.400437037 114.0
36.405360893 111.0
36.410284749 113.0
36.415208605 92.0
36.420132461 127.0
36.425056317 118.0
36.429980173 127.0
36.434904029 110.0
36.439827885 96.0
36.444751741 105.0
36.449675597 121.0
36.454599453 100.0
36.459523309 117.0
36.464447165 119.0
36.469371021 99.0
36.474294877 118.0
36.479218733 127.0
36.484142589 109.0
36.489066445 121.0
36.493990301 112.0
36.498914157 100.0
36.503838013 120.0
36.508761869 119.0
36.513685725 108.0
36.518609581 102.0
36.523533437 108.0
36.528457293 105.0
36.533381149 109.0
36.538305005 105.0
36.543228861 99.0
36.548152717 106.0
36.553076573 136.0
36.558000429 124.0
36.562924285 128.0
36.567848141 119.0
36.572771997 106.0
36.577695853 111.0
36.582619709 113.0
36.587543565 112.0
36.592467421 125.0
36.597391277 109.0
36.602315133 112.0
36.607238989 111.0
36.612162845 110.0
36.617086701 105.0
36.622010557 104.0
36.626934413 129.0
36.631858269 90.0
36.636782125 108.0
36.641705981 111.0
36.646629837 120.0
36.651553693 117.0
36.656477549 105.0
36.661401405 116.0
36.666325261 94.0
36.671249117 120.0
36.676172973 115.0
36.681096829 124.0
36.686020685 123.0
36.690944541 111.0
36.695868397 123.0
36.700792253 120.0
36.705716109 124.0
36.710639965 118.0
36.715563821 109.0
36.720487677 133.0
36.725411533 101.0
36.730335389 116.0
36.735259245 123.0
36.740183101 111.0
36.745106957 117.0
36.750030813 117.0
36.754954670 124.0
36.759878526 123.0
36.764802382 100.0
36.769726238 114.0
36.774650094 113.0
36.779573950 103.0
36.784497806 122.0
36.789421662 121.0
36.794345518 113.0
36.799269374 120.0
36.804193230 109.0
36.809117086 112.0
36.814040942 92.0
36.818964798 112.0
36.823888654 118.0
36.828812510 123.0
36.833736366 114.0
36.838660222 101.0
36.843584078 130.0
36.848507934 98.0
36.853431790 131.0
36.858355646 119.0
36.863279502 107.0
36.868203358 121.0
36.873127214 108.0
36.878051070 115.0
36.882974926 102.0
36.887898782 109.0
36.892822638 101.0
36.897746494 127.0
36.902670350 121.0
36.907594206 122.0
36.912518062 87.0
36.917441918 93.0
36.922365774 125.0
36.927289630 124.0
36.932213486 90.0
36.937137342 135.0
36.942061198 107.0
36.946985054 107.0
36.951908910 106.0
36.956832766 117.0
36.961756622 114.0
36.966680478 130.0
36.971604334 99.0
36.976528190 112.0
36.981452046 115.0
36.986375902 110.0
36.991299758 112.0
36.996223614 117.0
37.001147470 107.0
37.006071326 111.0
37.010995182 105.0
37.015919038 117.0
37.020842894 102.0
37.025766750 110.0
37.030690606 120.0
37.035614462 109.0
37.040538318 104.0
37.045462174 101.0
37.050386030 128.0
37.055309886 108.0
37.060233742 116.0
37.065157598 116.0
37.070081454 100.0
37.075005310 105.0
37.079929166 133.0
37.084853022 114.0
37.089776878 122.0
37.094700734 97.0
37.099624590 111.0
37.104548446 106.0
37.109472302 95.0
37.114396158 131.0
37.119320014 114.0
37.124243870 108.0
37.129167726 109.0
37.134091582 121.0
37.139015438 118.0
37.143939294 103.0
37.148863150 102.0
37.153787006 119.0
37.158710862 111.0
37.163634718 116.0
37.168558574 116.0
37.173482430 106.0
37.178406286 120.0
37.183330142 108.0
37.188253998 121.0
37.193177854 100.0
37.198101710 122.0
37.203025566 118.0
37.207949422 88.0
37.212873278 117.0
37.217797134 110.0
37.222720990 119.0
37.227644846 97.0
37.232568702 131.0
37.237492558 114.0
37.242416414 113.0
37.247340270 108.0
37.252264127 120.0
37.257187983 108.0
37.262111839 122.0
37.267035695 119.0
37.271959551 107.0
37.276883407 106.0
37.281807263 112.0
37.286731119 120.0
37.291654975 134.0
37.296578831 130.0
37.301502687 112.0
37.306426543 116.0
37.311350399 124.0
37.316274255 112.0
37.321198111 106.0
37.326121967 127.0
37.331045823 139.0
37.335969679 103.0
37.340893535 111.0
37.345817391 118.0
37.350741247 121.0
37.355665103 112.0
37.360588959 128.0
37.365512815 132.0
37.370436671 141.0
37.375360527 182.0
37.380284383 156.0
37.385208239 178.0
37.390132095 182.0
37.395055951 209.0
37.399979807 277.0
37.404903663 295.0
37.409827519 286.0
37.414751375 336.0
37.419675231 318.0
37.424599087 299.0
37.429522943 306.0
37.434446799 308.0
37.439370655 288.0
37.444294511 282.0
37.449218367 217.0
37.454142223 200.0
37.459066079 185.0
37.463989935 139.0
37.468913791 153.0
37.473837647 143.0
37.478761503 129.0
37.483685359 129.0
37.488609215 145.0
37.493533071 131.0
37.498456927 128.0
37.503380783 121.0
37.508304639 123.0
37.513228495 127.0
37.518152351 111.0
37.523076207 111.0
37.528000063 126.0
37.532923919 118.0
37.537847775 117.0
37.542771631 102.0
37.547695487 141.0
37.552619343 120.0
37.557543199 121.0
37.562467055 124.0
37.567390911 107.0
37.572314767 109.0
37.577238623 125.0
37.582162479 118.0
37.587086335 127.0
37.592010191 118.0
37.596934047 122.0
37.601857903 109.0
37.606781759 120.0
37.611705615 118.0
37.616629471 136.0
37.621553327 116.0
37.626477183 109.0
37.631401039 98.0
37.636324895 116.0
37.641248751 139.0
37.646172607 118.0
37.651096463 118.0
37.656020319 120.0
37.660944175 115.0
37.665868031 112.0
37.670791887 118.0
37.675715743 122.0
37.680639599 106.0
37.685563455 123.0
37.690487311 102.0
37.695411167 105.0
37.700335023 112.0
37.705258879 105.0
37.710182735 127.0
37.715106591 106.0
37.720030447 121.0
37.724954303 130.0
37.729878159 109.0
37.734802015 128.0
37.739725871 117.0
37.744649727 115.0
37.749573583 122.0
37.754497440 124.0
37.759421296 108.0
37.764345152 113.0
37.769269008 109.0
37.774192864 129.0
37.779116720 120.0
37.784040576 121.0
37.788964432 116.0
37.793888288 122.0
37.798812144 123.0
37.803736000 117.0
37.808659856 153.0
37.813583712 104.0
37.818507568 128.0
37.823431424 131.0
37.828355280 145.0
37.833279136 127.0
37.838202992 140.0
37.843126848 120.0
37.848050704 111.0
37.852974560 125.0
37.857898416 120.0
37.862822272 131.0
37.867746128 99.0
37.872669984 131.0
37.877593840 118.0
37.882517696 148.0
37.887441552 127.0
37.892365408 133.0
37.897289264 124.0
37.902213120 115.0
37.907136976 122.0
37.912060832 118.0
37.916984688 146.0
37.921908544 106.0
37.926832400 118.0
37.931756256 122.0
37.936680112 135.0
37.941603968 125.0
37.946527824 121.0
37.951451680 119.0
37.956375536 124.0
37.961299392 111.0
37.966223248 122.0
37.971147104 143.0
37.976070960 147.0
37.980994816 105.0
37.985918672 118.0
37.990842528 130.0
37.995766384 127.0
38.000690240 134.0
38.005614096 111.0
38.010537952 121.0
38.015461808 119.0
38.020385664 124.0
38.025309520 99.0
38.030233376 148.0
38.035157232 121.0
38.040081088 120.0
38.045004944 111.0
38.049928800 128.0
38.054852656 129.0
38.059776512 112.0
38.064700368 122.0
38.069624224 125.0
38.074548080 111.0
38.079471936 119.0
38.084395792 125.0
38.089319648 109.0
38.094243504 125.0
38.099167360 124.0
38.104091216 111.0
38.109015072 103.0
38.113938928 114.0
38.118862784 120.0
38.123786640 122.0
38.128710496 138.0
38.133634352 123.0
38.138558208 128.0
38.143482064 112.0
38.148405920 131.0
38.153329776 90.0
38.158253632 98.0
38.163177488 126.0
38.168101344 111.0
38.173025200 137.0
38.177949056 128.0
38.182872912 126.0
38.187796768 106.0
38.192720624 117.0
38.197644480 107.0
38.202568336 114.0
38.207492192 132.0
38.212416048 115.0
38.217339904 126.0
38.222263760 95.0
38.227187616 114.0
38.232111472 126.0
38.237035328 127.0
38.241959184 135.0
38.246883040 115.0
38.251806897 120.0
38.256730753 114.0
38.261654609 115.0
38.266578465 99.0
38.271502321 125.0
38.276426177 117.0
38.281350033 115.0
38.286273889 121.0
38.291197745 124.0
38.296121601 126.0
38.301045457 97.0
38.305969313 114.0
38.310893169 112.0
38.315817025 100.0
38.320740881 118.0
38.325664737 118.0
38.330588593 104.0
38.335512449 130.0
38.340436305 105.0
38.345360161 127.0
38.350284017 112.0
38.355207873 118.0
38.360131729 125.0
38.365055585 129.0
38.369979441 116.0
38.374903297 120.0
38.379827153 123.0
38.384751009 115.0
38.389674865 117.0
38.394598721 134.0
38.399522577 131.0
38.404446433 116.0
38.409370289 108.0
38.414294145 107.0
38.419218001 138.0
38.424141857 136.0
38.429065713 124.0
38.433989569 123.0
38.438913425 134.0
38.443837281 120.0
38.448761137 125.0
38.453684993 140.0
38.458608849 142.0
38.463532705 138.0
38.468456561 126.0
38.473380417 123.0
38.478304273 114.0
38.483228129 144.0
38.488151985 121.0
38.493075841 140.0
38.497999697 132.0
38.502923553 146.0
38.507847409 138.0
38.512771265 151.0
38.517695121 130.0
38.522618977 117.0
38.527542833 133.0
38.532466689 147.0
38.537390545 130.0
38.542314401 143.0
38.547238257 130.0
38.552162113 132.0
38.557085969 129.0
38.562009825 142.0
38.566933681 150.0
38.571857537 125.0
38.576781393 139.0
38.581705249 152.0
38.586629105 130.0
38.591552961 133.0
38.596476817 142.0
38.601400673 142.0
38.606324529 133.0
38.611248385 133.0
38.616172241 157.0
38.621096097 141.0
38.626019953 145.0
38.630943809 171.0
38.635867665 162.0
38.640791521 154.0
38.645715377 151.0
38.650639233 169.0
38.655563089 132.0
38.660486945 133.0
38.665410801 148.0
38.670334657 159.0
38.675258513 164.0
38.680182369 155.0
38.685106225 200.0
38.690030081 178.0
38.694953937 147.0
38.699877793 163.0
38.704801649 178.0
38.709725505 179.0
38.714649361 174.0
38.719573217 181.0
38.724497073 181.0
38.729420929 190.0
38.734344785 182.0
38.739268641 179.0
38.744192497 186.0
38.749116353 173.0
38.754040210 202.0
38.758964066 170.0
38.763887922 188.0
38.768811778 178.0
38.773735634 176.0
38.778659490 167.0
38.783583346 169.0
38.788507202 164.0
38.793431058 210.0
38.798354914 200.0
38.803278770 210.0
38.808202626 177.0
38.813126482 194.0
38.818050338 168.0
38.822974194 183.0
38.827898050 196.0
38.832821906 203.0
38.837745762 176.0
38.842669618 201.0
38.847593474 196.0
38.852517330 199.0
38.857441186 212.0
38.862365042 182.0
38.867288898 218.0
38.872212754 209.0
38.877136610 256.0
38.882060466 195.0
38.886984322 212.0
38.891908178 217.0
38.896832034 227.0
38.901755890 265.0
38.906679746 216.0
38.911603602 215.0
38.916527458 216.0
38.921451314 211.0
38.926375170 200.0
38.931299026 258.0
38.936222882 222.0
38.941146738 223.0
38.946070594 228.0
38.950994450 198.0
38.955918306 256.0
38.960842162 221.0
38.965766018 231.0
38.970689874 217.0
38.975613730 257.0
38.980537586 266.0
38.985461442 255.0
38.990385298 264.0
38.995309154 265.0
39.000233010 229.0
39.005156866 236.0
39.010080722 277.0
39.015004578 257.0
39.019928434 219.0
39.024852290 275.0
39.029776146 259.0
39.034700002 213.0
39.039623858 229.0
39.044547714 237.0
39.049471570 274.0
39.054395426 261.0
39.059319282 217.0
39.064243138 266.0
39.069166994 284.0
39.074090850 275.0
39.079014706 219.0
39.083938562 226.0
39.088862418 255.0
39.093786274 263.0
39.098710130 230.0
39.103633986 262.0
39.108557842 301.0
39.113481698 276.0
39.118405554 274.0
39.123329410 278.0
39.128253266 284.0
39.133177122 257.0
39.138100978 261.0
39.143024834 266.0
39.147948690 294.0
39.152872546 261.0
39.157796402 237.0
39.162720258 274.0
39.167644114 294.0
39.172567970 265.0
39.177491826 276.0
39.182415682 225.0
39.187339538 259.0
39.192263394 296.0
39.197187250 258.0
39.202111106 315.0
39.207034962 293.0
39.211958818 256.0
39.216882674 281.0
39.221806530 257.0
39.226730386 274.0
39.231654242 262.0
39.236578098 263.0
39.241501954 264.0
39.246425810 229.0
39.251349667 223.0
39.256273523 278.0
39.261197379 224.0
39.266121235 225.0
39.271045091 278.0
39.275968947 221.0
39.280892803 262.0
39.285816659 259.0
39.290740515 280.0
39.295664371 276.0
39.300588227 269.0
39.305512083 289.0
39.310435939 278.0
39.315359795 270.0
39.320283651 204.0
39.325207507 276.0
39.330131363 266.0
39.335055219 260.0
39.339979075 262.0
39.344902931 266.0
39.349826787 219.0
39.354750643 272.0
39.359674499 232.0
39.364598355 217.0
39.369522211 256.0
39.374446067 235.0
39.379369923 202.0
39.384293779 222.0
39.389217635 229.0
39.394141491 282.0
39.399065347 269.0
39.403989203 214.0
39.408913059 258.0
39.413836915 214.0
39.418760771 265.0
39.423684627 217.0
39.428608483 217.0
39.433532339 215.0
39.438456195 224.0
39.443380051 210.0
39.448303907 199.0
39.453227763 220.0
39.458151619 220.0
39.463075475 228.0
39.467999331 202.0
39.472923187 222.0
39.477847043 224.0
39.482770899 205.0
39.487694755 213.0
39.492618611 195.0
39.497542467 182.0
39.502466323 227.0
39.507390179 204.0
39.512314035 216.0
39.517237891 212.0
39.522161747 214.0
39.527085603 199.0
39.532009459 188.0
39.536933315 192.0
39.541857171 194.0
39.546781027 223.0
39.551704883 185.0
39.556628739 180.0
39.561552595 186.0
39.566476451 179.0
39.571400307 203.0
39.576324163 162.0
39.581248019 200.0
39.586171875 188.0
39.591095731 172.0
39.596019587 188.0
39.600943443 191.0
39.605867299 177.0
39.610791155 189.0
39.615715011 188.0
39.620638867 156.0
39.625562723 154.0
39.630486579 159.0
39.635410435 163.0
39.640334291 196.0
39.645258147 170.0
39.650182003 168.0
39.655105859 164.0
39.660029715 187.0
39.664953571 166.0
39.669877427 168.0
39.674801283 150.0
39.679725139 142.0
39.684648995 160.0
39.689572851 152.0
39.694496707 186.0
39.699420563 192.0
39.704344419 197.0
39.709268275 161.0
39.714192131 171.0
39.719115987 167.0
39.724039843 149.0
39.728963699 149.0
39.733887555 144.0
39.738811411 155.0
39.743735267 168.0
39.748659123 163.0
39.753582980 151.0
39.758506836 158.0
39.763430692 142.0
39.768354548 152.0
39.773278404 143.0
39.778202260 141.0
39.783126116 152.0
39.788049972 132.0
39.792973828 163.0
39.797897684 130.0
39.802821540 153.0
39.807745396 161.0
39.812669252 146.0
39.817593108 170.0
39.822516964 145.0
39.827440820 157.0
39.832364676 142.0
39.837288532 146.0
39.842212388 162.0
39.847136244 132.0
39.852060100 151.0
39.856983956 124.0
39.861907812 149.0
39.866831668 130.0
39.871755524 153.0
39.876679380 137.0
39.881603236 137.0
39.886527092 142.0
39.891450948 120.0
39.896374804 141.0
39.901298660 139.0
39.906222516 114.0
39.911146372 126.0
39.916070228 133.0
39.920994084 137.0
39.925917940 125.0
39.930841796 127.0
39.935765652 141.0
39.940689508 147.0
39.945613364 148.0
39.950537220 148.0
39.955461076 109.0
39.960384932 141.0
39.965308788 127.0
39.970232644 122.0
39.975156500 131.0
39.980080356 144.0
39.985004212 134.0
39.989928068 146.0
39.994851924 135.0
39.999775780 135.0
40.004699636 134.0
40.009623492 137.0
40.014547348 123.0
40.019471204 134.0
40.024395060 121.0
40.029318916 135.0
40.034242772 143.0
40.039166628 124.0
40.044090484 146.0
40.049014340 110.0
40.053938196 142.0
40.058862052 141.0
40.063785908 139.0
40.068709764 126.0
40.073633620 117.0
40.078557476 148.0
40.083481332 126.0
40.088405188 134.0
40.093329044 112.0
40.098252900 115.0
40.103176756 129.0
40.108100612 121.0
40.113024468 121.0
40.117948324 136.0
40.122872180 136.0
40.127796036 139.0
40.132719892 136.0
40.137643748 147.0
40.142567604 121.0
40.147491460 138.0
40.152415316 122.0
40.157339172 120.0
40.162263028 112.0
40.167186884 109.0
40.172110740 131.0
40.177034596 131.0
40.181958452 125.0
40.186882308 137.0
40.191806164 116.0
40.196730020 122.0
40.201653876 114.0
40.206577732 130.0
40.211501588 145.0
40.216425444 139.0
40.221349300 142.0
40.226273156 137.0
40.231197012 125.0
40.236120868 151.0
40.241044724 135.0
40.245968580 132.0
40.250892437 128.0
40.255816293 127.0
40.260740149 122.0
40.265664005 140.0
40.270587861 126.0
40.275511717 124.0
40.280435573 146.0
40.285359429 131.0
40.290283285 134.0
40.295207141 132.0
40.300130997 157.0
40.305054853 135.0
40.309978709 146.0
40.314902565 132.0
40.319826421 123.0
40.324750277 123.0
40.329674133 134.0
40.334597989 125.0
40.339521845 147.0
40.344445701 154.0
40.349369557 159.0
40.354293413 118.0
40.359217269 129.0
40.364141125 134.0
40.369064981 149.0
40.373988837 132.0
40.378912693 127.0
40.383836549 156.0
40.388760405 161.0
40.393684261 147.0
40.398608117 138.0
40.403531973 143.0
40.408455829 146.0
40.413379685 117.0
40.418303541 144.0
40.423227397 138.0
40.428151253 155.0
40.433075109 139.0
40.437998965 128.0
40.442922821 126.0
40.447846677 127.0
40.452770533 136.0
40.457694389 149.0
40.462618245 137.0
40.467542101 137.0
40.472465957 151.0
40.477389813 145.0
40.482313669 151.0
40.487237525 135.0
40.492161381 128.0
40.497085237 131.0
40.502009093 141.0
40.506932949 145.0
40.511856805 136.0
40.516780661 148.0
40.521704517 149.0
40.526628373 153.0
40.531552229 138.0
40.536476085 148.0
40.541399941 130.0
40.546323797 149.0
40.551247653 131.0
40.556171509 160.0
40.561095365 133.0
40.566019221 154.0
40.570943077 157.0
40.575866933 138.0
40.580790789 139.0
40.585714645 124.0
40.590638501 137.0
40.595562357 159.0
40.600486213 145.0
40.605410069 157.0
40.610333925 144.0
40.615257781 175.0
40.620181637 141.0
40.625105493 158.0
40.630029349 149.0
40.634953205 140.0
40.639877061 147.0
40.644800917 142.0
40.649724773 146.0
40.654648629 149.0
40.659572485 135.0
40.664496341 176.0
40.669420197 157.0
40.674344053 150.0
40.679267909 165.0
40.684191765 163.0
40.689115621 172.0
40.694039477 155.0
40.698963333 161.0
40.703887189 158.0
40.708811045 145.0
40.713734901 160.0
40.718658757 171.0
40.723582613 167.0
40.728506469 144.0
40.733430325 170.0
40.738354181 133.0
40.743278037 153.0
40.748201893 139.0
40.753125750 151.0
40.758049606 156.0
40.762973462 153.0
40.767897318 153.0
40.772821174 185.0
40.777745030 156.0
40.782668886 186.0
40.787592742 167.0
40.792516598 160.0
40.797440454 173.0
40.802364310 160.0
40.807288166 164.0
40.812212022 178.0
40.817135878 150.0
40.822059734 163.0
40.826983590 149.0
40.831907446 162.0
40.836831302 166.0
40.841755158 165.0
40.846679014 179.0
40.851602870 179.0
40.856526726 178.0
40.861450582 157.0
40.866374438 173.0
40.871298294 183.0
40.876222150 147.0
40.881146006 178.0
40.886069862 189.0
40.890993718 180.0
40.895917574 178.0
40.900841430 166.0
40.905765286 187.0
40.910689142 167.0
40.915612998 194.0
40.920536854 175.0
40.925460710 180.0
40.930384566 168.0
40.935308422 176.0
40.940232278 213.0
40.945156134 164.0
40.950079990 175.0
40.955003846 180.0
40.959927702 175.0
40.964851558 164.0
40.969775414 175.0
40.974699270 189.0
40.979623126 172.0
40.984546982 177.0
40.989470838 154.0
40.994394694 158.0
40.999318550 169.0
41.004242406 183.0
41.009166262 189.0
41.014090118 170.0
41.019013974 189.0
41.023937830 195.0
41.028861686 179.0
41.033785542 193.0
41.038709398 193.0
41.043633254 206.0
41.048557110 174.0
41.053480966 209.0
41.058404822 185.0
41.063328678 171.0
41.068252534 227.0
41.073176390 209.0
41.078100246 173.0
41.083024102 180.0
41.087947958 203.0
41.092871814 208.0
41.097795670 204.0
41.102719526 224.0
41.107643382 194.0
41.112567238 214.0
41.117491094 188.0
41.122414950 205.0
41.127338806 200.0
41.132262662 199.0
41.137186518 261.0
41.142110374 207.0
41.147034230 262.0
41.151958086 214.0
41.156881942 222.0
41.161805798 204.0
41.166729654 264.0
41.171653510 209.0
41.176577366 270.0
41.181501222 263.0
41.186425078 223.0
41.191348934 282.0
41.196272790 269.0
41.201196646 229.0
41.206120502 281.0
41.211044358 232.0
41.215968214 264.0
41.220892070 274.0
41.225815926 281.0
41.230739782 271.0
41.235663638 282.0
41.240587494 257.0
41.245511350 261.0
41.250435207 315.0
41.255359063 295.0
41.260282919 281.0
41.265206775 294.0
41.270130631 298.0
41.275054487 315.0
41.279978343 325.0
41.284902199 309.0
41.289826055 321.0
41.294749911 327.0
41.299673767 329.0
41.304597623 327.0
41.309521479 364.0
41.314445335 356.0
41.319369191 331.0
41.324293047 349.0
41.329216903 388.0
41.334140759 366.0
41.339064615 357.0
41.343988471 398.0
41.348912327 417.0
41.353836183 432.0
41.358760039 494.0
41.363683895 500.0
41.368607751 516.0
41.373531607 521.0
41.378455463 629.0
41.383379319 641.0
41.388303175 755.0
41.393227031 770.0
41.398150887 856.0
41.403074743 922.0
41.407998599 923.0
41.412922455 896.0
41.417846311 965.0
41.422770167 969.0
41.427694023 1015.0
41.432617879 983.0
41.437541735 995.0
41.442465591 988.0
41.447389447 996.0
41.452313303 1001.0
41.457237159 936.0
41.462161015 954.0
41.467084871 904.0
41.472008727 1016.0
41.476932583 1004.0
41.481856439 1027.0
41.486780295 1102.0
41.491704151 1168.0
41.496628007 1325.0
41.501551863 1371.0
41.506475719 1582.0
41.511399575 1781.0
41.516323431 1949.0
41.521247287 2239.0
41.526171143 2482.0
41.531094999 3095.0
41.536018855 3774.0
41.540942711 4399.0
41.545866567 5647.0
41.550790423 7084.0
41.555714279 9842.0
41.560638135 14036.0
41.565561991 22755.0
41.570485847 34377.0
41.575409703 44853.0
41.580333559 53050.0
41.585257415 57132.0
41.590181271 60404.0
41.595105127 61289.0
41.600028983 61953.0
41.604952839 61661.0
41.609876695 60301.0
41.614800551 57980.0
41.619724407 52454.0
41.624648263 42984.0
41.629572119 30558.0
41.634495975 20783.0
41.639419831 14236.0
41.644343687 10321.0
41.649267543 8455.0
41.654191399 7426.0
41.659115255 7023.0
41.664039111 7910.0
41.668962967 9667.0
41.673886823 13411.0
41.678810679 17816.0
41.683734535 23293.0
41.688658391 26540.0
41.693582247 29308.0
41.698506103 30372.0
41.703429959 30642.0
41.708353815 31049.0
41.713277671 30500.0
41.718201527 29716.0
41.723125383 28206.0
41.728049239 25450.0
41.732973095 20967.0
41.737896951 15501.0
41.742820807 10556.0
41.747744663 7414.0
41.752668520 5237.0
41.757592376 3889.0
41.762516232 2982.0
41.767440088 2450.0
41.772363944 2013.0
41.777287800 1724.0
41.782211656 1492.0
41.787135512 1390.0
41.792059368 1279.0
41.796983224 1191.0
41.801907080 1123.0
41.806830936 917.0
41.811754792 961.0
41.816678648 824.0
41.821602504 824.0
41.826526360 779.0
41.831450216 778.0
41.836374072 679.0
41.841297928 677.0
41.846221784 681.0
41.851145640 624.0
41.856069496 614.0
41.860993352 573.0
41.865917208 555.0
41.870841064 518.0
41.875764920 548.0
41.880688776 516.0
41.885612632 470.0
41.890536488 431.0
41.895460344 442.0
41.900384200 395.0
41.905308056 399.0
41.910231912 414.0
41.915155768 430.0
41.920079624 431.0
41.925003480 411.0
41.929927336 397.0
41.934851192 432.0
41.939775048 397.0
41.944698904 310.0
41.949622760 356.0
41.954546616 363.0
41.959470472 359.0
41.964394328 334.0
41.969318184 346.0
41.974242040 326.0
41.979165896 314.0
41.984089752 340.0
41.989013608 319.0
41.993937464 294.0
41.998861320 287.0
42.003785176 287.0
42.008709032 293.0
42.013632888 313.0
42.018556744 296.0
42.023480600 290.0
42.028404456 287.0
42.033328312 282.0
42.038252168 267.0
42.043176024 282.0
42.048099880 290.0
42.053023736 268.0
42.057947592 257.0
42.062871448 224.0
42.067795304 273.0
42.072719160 256.0
42.077643016 227.0
42.082566872 273.0
42.087490728 218.0
42.092414584 231.0
42.097338440 259.0
42.102262296 194.0
42.107186152 176.0
42.112110008 231.0
42.117033864 202.0
42.121957720 217.0
42.126881576 197.0
42.131805432 220.0
42.136729288 213.0
42.141653144 211.0
42.146577000 188.0
42.151500856 187.0
42.156424712 164.0
42.161348568 184.0
42.166272424 194.0
42.171196280 194.0
42.176120136 182.0
42.181043992 198.0
42.185967848 193.0
42.190891704 165.0
42.195815560 177.0
42.200739416 171.0
42.205663272 180.0
42.210587128 170.0
42.215510984 176.0
42.220434840 169.0
42.225358696 176.0
42.230282552 170.0
42.235206408 182.0
42.240130264 177.0
42.245054120 169.0
42.249977977 179.0
42.254901833 180.0
42.259825689 157.0
42.264749545 165.0
42.269673401 180.0
42.274597257 162.0
42.279521113 179.0
42.284444969 165.0
42.289368825 157.0
42.294292681 152.0
42.299216537 162.0
42.304140393 153.0
42.309064249 154.0
42.313988105 146.0
42.318911961 166.0
42.323835817 176.0
42.328759673 159.0
42.333683529 167.0
42.338607385 175.0
42.343531241 152.0
42.348455097 150.0
42.353378953 153.0
42.358302809 146.0
42.363226665 152.0
42.368150521 172.0
42.373074377 164.0
42.377998233 150.0
42.382922089 158.0
42.387845945 146.0
42.392769801 160.0
42.397693657 158.0
42.402617513 148.0
42.407541369 155.0
42.412465225 156.0
42.417389081 165.0
42.422312937 146.0
42.427236793 145.0
42.432160649 177.0
42.437084505 146.0
42.442008361 144.0
42.446932217 160.0
42.451856073 126.0
42.456779929 153.0
42.461703785 156.0
42.466627641 145.0
42.471551497 160.0
42.476475353 143.0
42.481399209 156.0
42.486323065 158.0
42.491246921 148.0
42.496170777 125.0
42.501094633 119.0
42.506018489 150.0
42.510942345 131.0
42.515866201 124.0
42.520790057 137.0
42.525713913 155.0
42.530637769 127.0
42.535561625 143.0
42.540485481 145.0
42.545409337 127.0
42.550333193 142.0
42.555257049 122.0
42.560180905 115.0
42.565104761 133.0
42.570028617 143.0
42.574952473 139.0
42.579876329 152.0
42.584800185 138.0
42.589724041 127.0
42.594647897 142.0
42.599571753 135.0
42.604495609 135.0
42.609419465 137.0
42.614343321 132.0
42.619267177 127.0
42.624191033 132.0
42.629114889 135.0
42.634038745 131.0
42.638962601 124.0
42.643886457 123.0
42.648810313 148.0
42.653734169 136.0
42.658658025 132.0
42.663581881 134.0
42.668505737 123.0
42.673429593 120.0
42.678353449 123.0
42.683277305 129.0
42.688201161 119.0
42.693125017 135.0
42.698048873 124.0
42.702972729 114.0
42.707896585 130.0
42.712820441 133.0
42.717744297 126.0
42.722668153 133.0
42.727592009 131.0
42.732515865 113.0
42.737439721 157.0
42.742363577 117.0
42.747287433 129.0
42.752211290 135.0
42.757135146 115.0
42.762059002 131.0
42.766982858 132.0
42.771906714 139.0
42.776830570 120.0
42.781754426 137.0
42.786678282 125.0
42.791602138 138.0
42.796525994 127.0
42.801449850 125.0
42.806373706 117.0
42.811297562 146.0
42.816221418 115.0
42.821145274 130.0
42.826069130 129.0
42.830992986 112.0
42.835916842 109.0
42.840840698 136.0
42.845764554 105.0
42.850688410 138.0
42.855612266 141.0
42.860536122 143.0
42.865459978 127.0
42.870383834 123.0
42.875307690 125.0
42.880231546 132.0
42.885155402 133.0
42.890079258 133.0
42.895003114 132.0
42.899926970 146.0
42.904850826 140.0
42.909774682 124.0
42.914698538 114.0
42.919622394 125.0
42.924546250 123.0
42.929470106 129.0
42.934393962 132.0
42.939317818 121.0
42.944241674 107.0
42.949165530 121.0
42.954089386 130.0
42.959013242 133.0
42.963937098 124.0
42.968860954 115.0
42.973784810 116.0
42.978708666 126.0
42.983632522 133.0
42.988556378 121.0
42.993480234 121.0
42.998404090 134.0
43.003327946 156.0
43.008251802 123.0
43.013175658 134.0
43.018099514 124.0
43.023023370 112.0
43.027947226 114.0
43.032871082 118.0
43.037794938 131.0
43.042718794 118.0
43.047642650 138.0
43.052566506 140.0
43.057490362 124.0
43.062414218 117.0
43.067338074 130.0
43.072261930 119.0
43.077185786 129.0
43.082109642 115.0
43.087033498 109.0
43.091957354 125.0
43.096881210 123.0
43.101805066 124.0
43.106728922 125.0
43.111652778 131.0
43.116576634 119.0
43.121500490 131.0
43.126424346 131.0
43.131348202 141.0
43.136272058 122.0
43.141195914 114.0
43.146119770 140.0
43.151043626 137.0
43.155967482 120.0
43.160891338 127.0
43.165815194 114.0
43.170739050 122.0
43.175662906 137.0
43.180586762 136.0
43.185510618 126.0
43.190434474 123.0
43.195358330 123.0
43.200282186 148.0
43.205206042 116.0
43.210129898 124.0
43.215053754 134.0
43.219977610 136.0
43.224901466 129.0
43.229825322 138.0
43.234749178 113.0
43.239673034 114.0
43.244596890 121.0
43.249520747 120.0
43.254444603 129.0
43.259368459 109.0
43.264292315 129.0
43.269216171 147.0
43.274140027 130.0
43.279063883 119.0
43.283987739 117.0
43.288911595 116.0
43.293835451 133.0
43.298759307 118.0
43.303683163 100.0
43.308607019 126.0
43.313530875 111.0
43.318454731 120.0
43.323378587 137.0
43.328302443 116.0
43.333226299 125.0
43.338150155 130.0
43.343074011 120.0
43.347997867 134.0
43.352921723 129.0
43.357845579 122.0
43.362769435 124.0
43.367693291 102.0
43.372617147 118.0
43.377541003 119.0
43.382464859 116.0
43.387388715 139.0
43.392312571 103.0
43.397236427 106.0
43.402160283 120.0
43.407084139 145.0
43.412007995 134.0
43.416931851 111.0
43.421855707 120.0
43.426779563 127.0
43.431703419 143.0
43.436627275 121.0
43.441551131 125.0
43.446474987 120.0
43.451398843 128.0
43.456322699 116.0
43.461246555 124.0
43.466170411 121.0
43.471094267 112.0
43.476018123 107.0
43.480941979 120.0
43.485865835 123.0
43.490789691 114.0
43.495713547 107.0
43.500637403 108.0
43.505561259 132.0
43.510485115 98.0
43.515408971 123.0
43.520332827 134.0
43.525256683 130.0
43.530180539 112.0
43.535104395 121.0
43.540028251 142.0
43.544952107 132.0
43.549875963 131.0
43.554799819 118.0
43.559723675 123.0
43.564647531 128.0
43.569571387 131.0
43.574495243 135.0
43.579419099 133.0
43.584342955 137.0
43.589266811 128.0
43.594190667 146.0
43.599114523 101.0
43.604038379 121.0
43.608962235 124.0
43.613886091 139.0
43.618809947 148.0
43.623733803 119.0
43.628657659 131.0
43.633581515 129.0
43.638505371 116.0
43.643429227 126.0
43.648353083 132.0
43.653276939 123.0
43.658200795 121.0
43.663124651 144.0
43.668048507 132.0
43.672972363 121.0
43.677896219 134.0
43.682820075 115.0
43.687743931 132.0
43.692667787 116.0
43.697591643 117.0
43.702515499 120.0
43.707439355 144.0
43.712363211 134.0
43.717287067 123.0
43.722210923 123.0
43.727134779 143.0
43.732058635 139.0
43.736982491 124.0
43.741906347 163.0
43.746830203 155.0
43.751754060 121.0
43.756677916 141.0
43.761601772 164.0
43.766525628 129.0
43.771449484 143.0
43.776373340 127.0
43.781297196 146.0
43.786221052 127.0
43.791144908 129.0
43.796068764 131.0
43.800992620 166.0
43.805916476 145.0
43.810840332 133.0
43.815764188 145.0
43.820688044 143.0
43.825611900 133.0
43.830535756 172.0
43.835459612 129.0
43.840383468 148.0
43.845307324 138.0
43.850231180 136.0
43.855155036 143.0
43.860078892 136.0
43.865002748 136.0
43.869926604 142.0
43.874850460 137.0
43.879774316 140.0
43.884698172 146.0
43.889622028 159.0
43.894545884 128.0
43.899469740 132.0
43.904393596 141.0
43.909317452 140.0
43.914241308 134.0
43.919165164 132.0
43.924089020 149.0
43.929012876 133.0
43.933936732 160.0
43.938860588 121.0
43.943784444 170.0
43.948708300 116.0
43.953632156 129.0
43.958556012 151.0
43.963479868 129.0
43.968403724 136.0
43.973327580 146.0
43.978251436 135.0
43.983175292 160.0
43.988099148 156.0
43.993023004 166.0
43.997946860 164.0
44.002870716 139.0
44.007794572 163.0
44.012718428 145.0
44.017642284 158.0
44.022566140 158.0
44.027489996 134.0
44.032413852 150.0
44.037337708 167.0
44.042261564 183.0
44.047185420 175.0
44.052109276 131.0
44.057033132 160.0
44.061956988 142.0
44.066880844 139.0
44.071804700 144.0
44.076728556 159.0
44.081652412 161.0
44.086576268 168.0
44.091500124 154.0
44.096423980 158.0
44.101347836 162.0
44.106271692 149.0
44.111195548 166.0
44.116119404 156.0
44.121043260 143.0
44.125967116 166.0
44.130890972 182.0
44.135814828 162.0
44.140738684 180.0
44.145662540 174.0
44.150586396 180.0
44.155510252 175.0
44.160434108 163.0
44.165357964 175.0
44.170281820 200.0
44.175205676 175.0
44.180129532 176.0
44.185053388 170.0
44.189977244 203.0
44.194901100 175.0
44.199824956 185.0
44.204748812 187.0
44.209672668 184.0
44.214596524 187.0
44.219520380 176.0
44.224444236 195.0
44.229368092 207.0
44.234291948 214.0
44.239215804 199.0
44.244139660 231.0
44.249063517 212.0
44.253987373 197.0
44.258911229 203.0
44.263835085 198.0
44.268758941 235.0
44.273682797 198.0
44.278606653 241.0
44.283530509 205.0
44.288454365 226.0
44.293378221 238.0
44.298302077 227.0
44.303225933 256.0
44.308149789 226.0
44.313073645 258.0
44.317997501 279.0
44.322921357 240.0
44.327845213 283.0
44.332769069 255.0
44.337692925 247.0
44.342616781 270.0
44.347540637 302.0
44.352464493 269.0
44.357388349 269.0
44.362312205 270.0
44.367236061 268.0
44.372159917 288.0
44.377083773 282.0
44.382007629 322.0
44.386931485 276.0
44.391855341 298.0
44.396779197 266.0
44.401703053 274.0
44.406626909 286.0
44.411550765 303.0
44.416474621 288.0
44.421398477 295.0
44.426322333 279.0
44.431246189 306.0
44.436170045 280.0
44.441093901 277.0
44.446017757 314.0
44.450941613 276.0
44.455865469 295.0
44.460789325 291.0
44.465713181 244.0
44.470637037 292.0
44.475560893 237.0
44.480484749 273.0
44.485408605 272.0
44.490332461 255.0
44.495256317 292.0
44.500180173 272.0
44.505104029 268.0
44.510027885 211.0
44.514951741 272.0
44.519875597 278.0
44.524799453 256.0
44.529723309 240.0
44.534647165 262.0
44.539571021 221.0
44.544494877 239.0
44.549418733 226.0
44.554342589 210.0
44.559266445 218.0
44.564190301 237.0
44.569114157 201.0
44.574038013 214.0
44.578961869 206.0
44.583885725 208.0
44.588809581 188.0
44.593733437 216.0
44.598657293 203.0
44.603581149 179.0
44.608505005 190.0
44.613428861 192.0
44.618352717 184.0
44.623276573 178.0
44.628200429 184.0
44.633124285 160.0
44.638048141 199.0
44.642971997 161.0
44.647895853 174.0
44.652819709 163.0
44.657743565 162.0
44.662667421 156.0
44.667591277 163.0
44.672515133 181.0
44.677438989 160.0
44.682362845 132.0
44.687286701 155.0
44.692210557 151.0
44.697134413 140.0
44.702058269 158.0
44.706982125 164.0
44.711905981 140.0
44.716829837 155.0
44.721753693 122.0
44.726677549 152.0
44.731601405 153.0
44.736525261 158.0
44.741449117 148.0
44.746372973 161.0
44.751296830 125.0
44.756220686 146.0
44.761144542 137.0
44.766068398 150.0
44.770992254 158.0
44.775916110 138.0
44.780839966 142.0
44.785763822 143.0
44.790687678 141.0
44.795611534 128.0
44.800535390 133.0
44.805459246 135.0
44.810383102 121.0
44.815306958 136.0
44.820230814 131.0
44.825154670 139.0
44.830078526 130.0
44.835002382 145.0
44.839926238 139.0
44.844850094 128.0
44.849773950 140.0
44.854697806 119.0
44.859621662 128.0
44.864545518 123.0
44.869469374 154.0
44.874393230 138.0
44.879317086 122.0
44.884240942 143.0
44.889164798 138.0
44.894088654 134.0
44.899012510 137.0
44.903936366 121.0
44.908860222 110.0
44.913784078 122.0
44.918707934 139.0
44.923631790 114.0
44.928555646 109.0
44.933479502 134.0
44.938403358 123.0
44.943327214 123.0
44.948251070 123.0
44.953174926 122.0
44.958098782 131.0
44.963022638 140.0
44.967946494 115.0
44.972870350 144.0
44.977794206 125.0
44.982718062 133.0
44.987641918 109.0
44.992565774 119.0
44.997489630 135.0
