45.002461930 52.0
45.007385786 62.0
45.012309642 58.0
45.017233498 63.0
45.022157354 51.0
45.027081210 43.0
45.032005066 48.0
45.036928922 70.0
45.041852778 61.0
45.046776634 54.0
45.051700490 48.0
45.056624346 69.0
45.061548202 55.0
45.066472058 54.0
45.071395914 68.0
45.076319770 62.0
45.081243626 49.0
45.086167482 44.0
45.091091338 45.0
45.096015194 51.0
45.100939050 67.0
45.105862906 61.0
45.110786762 59.0
45.115710618 51.0
45.120634474 60.0
45.125558330 40.0
45.130482186 56.0
45.135406042 62.0
45.140329898 49.0
45.145253754 50.0
45.150177610 55.0
45.155101466 52.0
45.160025322 60.0
45.164949178 56.0
45.169873034 47.0
45.174796890 52.0
45.179720746 47.0
45.184644602 62.0
45.189568458 47.0
45.194492314 46.0
45.199416170 42.0
45.204340026 44.0
45.209263882 47.0
45.214187738 54.0
45.219111594 46.0
45.224035450 57.0
45.228959306 56.0
45.233883162 57.0
45.238807018 50.0
45.243730874 53.0
45.248654730 55.0
45.253578587 57.0
45.258502443 54.0
45.263426299 63.0
45.268350155 57.0
45.273274011 52.0
45.278197867 67.0
45.283121723 50.0
45.288045579 60.0
45.292969435 61.0
45.297893291 61.0
45.302817147 55.0
45.307741003 48.0
45.312664859 48.0
45.317588715 60.0
45.322512571 30.0
45.327436427 57.0
45.332360283 59.0
45.337284139 47.0
45.342207995 45.0
45.347131851 49.0
45.352055707 59.0
45.356979563 46.0
45.361903419 62.0
45.366827275 47.0
45.371751131 54.0
45.376674987 46.0
45.381598843 54.0
45.386522699 50.0
45.391446555 57.0
45.396370411 43.0
45.401294267 53.0
45.406218123 55.0
45.411141979 49.0
45.416065835 41.0
45.420989691 42.0
45.425913547 52.0
45.430837403 57.0
45.435761259 58.0
45.440685115 57.0
45.445608971 72.0
45.450532827 52.0
45.455456683 57.0
45.460380539 62.0
45.465304395 62.0
45.470228251 63.0
45.475152107 58.0
45.480075963 46.0
45.484999819 49.0
45.489923675 53.0
45.494847531 52.0
45.499771387 47.0
45.504695243 56.0
45.509619099 43.0
45.514542955 45.0
45.519466811 53.0
45.524390667 65.0
45.529314523 65.0
45.534238379 52.0
45.539162235 50.0
45.544086091 44.0
45.549009947 50.0
45.553933803 47.0
45.558857659 69.0
45.563781515 59.0
45.568705371 53.0
45.573629227 56.0
45.578553083 56.0
45.583476939 64.0
45.588400795 52.0
45.593324651 56.0
45.598248507 50.0
45.603172363 57.0
45.608096219 45.0
45.613020075 59.0
45.617943931 58.0
45.622867787 53.0
45.627791643 49.0
45.632715499 42.0
45.637639355 62.0
45.642563211 55.0
45.647487067 65.0
45.652410923 39.0
45.657334779 41.0
45.662258635 55.0
45.667182491 54.0
45.672106347 60.0
45.677030203 70.0
45.681954059 70.0
45.686877915 55.0
45.691801771 57.0
45.696725627 47.0
45.701649483 45.0
45.706573339 58.0
45.711497195 48.0
45.716421051 40.0
45.721344907 51.0
45.726268763 58.0
45.731192619 58.0
45.736116475 49.0
45.741040331 38.0
45.745964187 70.0
45.750888043 55.0
45.755811900 57.0
45.760735756 50.0
45.765659612 65.0
45.770583468 53.0
45.775507324 55.0
45.780431180 63.0
45.785355036 65.0
45.790278892 37.0
45.795202748 68.0
45.800126604 46.0
45.805050460 51.0
45.809974316 49.0
45.814898172 59.0
45.819822028 54.0
45.824745884 53.0
45.829669740 49.0
45.834593596 58.0
45.839517452 63.0
45.844441308 47.0
45.849365164 62.0
45.854289020 57.0
45.859212876 45.0
45.864136732 39.0
45.869060588 53.0
45.873984444 49.0
45.878908300 47.0
45.883832156 48.0
45.888756012 51.0
45.893679868 60.0
45.898603724 43.0
45.903527580 56.0
45.908451436 54.0
45.913375292 49.0
45.918299148 63.0
45.923223004 54.0
45.928146860 49.0
45.933070716 55.0
45.937994572 58.0
45.942918428 52.0
45.947842284 44.0
45.952766140 50.0
45.957689996 48.0
45.962613852 60.0
45.967537708 59.0
45.972461564 57.0
45.977385420 54.0
45.982309276 48.0
45.987233132 54.0
45.992156988 49.0
45.997080844 52.0
46.002004700 50.0
46.006928556 52.0
46.011852412 54.0
46.016776268 58.0
46.021700124 53.0
46.026623980 41.0
46.031547836 56.0
46.036471692 40.0
46.041395548 46.0
46.046319404 62.0
46.051243260 54.0
46.056167116 58.0
46.061090972 54.0
46.066014828 55.0
46.070938684 68.0
46.075862540 54.0
46.080786396 51.0
46.085710252 60.0
46.090634108 55.0
46.095557964 34.0
46.100481820 69.0
46.105405676 49.0
46.110329532 73.0
46.115253388 45.0
46.120177244 63.0
46.125101100 50.0
46.130024956 55.0
46.134948812 41.0
46.139872668 57.0
46.144796524 58.0
46.149720380 49.0
46.154644236 50.0
46.159568092 63.0
46.164491948 62.0
46.169415804 49.0
46.174339660 50.0
46.179263516 54.0
46.184187372 49.0
46.189111228 48.0
46.194035084 43.0
46.198958940 62.0
46.203882796 51.0
46.208806652 60.0
46.213730508 51.0
46.218654364 69.0
46.223578220 53.0
46.228502076 66.0
46.233425932 47.0
46.238349788 42.0
46.243273644 59.0
46.248197500 50.0
46.253121357 54.0
46.258045213 41.0
46.262969069 57.0
46.267892925 66.0
46.272816781 61.0
46.277740637 49.0
46.282664493 54.0
46.287588349 54.0
46.292512205 49.0
46.297436061 59.0
46.302359917 59.0
46.307283773 49.0
46.312207629 67.0
46.317131485 58.0
46.322055341 56.0
46.326979197 57.0
46.331903053 55.0
46.336826909 52.0
46.341750765 64.0
46.346674621 62.0
46.351598477 61.0
46.356522333 57.0
46.361446189 49.0
46.366370045 52.0
46.371293901 57.0
46.376217757 57.0
46.381141613 54.0
46.386065469 54.0
46.390989325 46.0
46.395913181 56.0
46.400837037 58.0
46.405760893 46.0
46.410684749 55.0
46.415608605 45.0
46.420532461 67.0
46.425456317 60.0
46.430380173 44.0
46.435304029 55.0
46.440227885 45.0
46.445151741 47.0
46.450075597 61.0
46.454999453 56.0
46.459923309 54.0
46.464847165 51.0
46.469771021 48.0
46.474694877 42.0
46.479618733 43.0
46.484542589 39.0
46.489466445 53.0
46.494390301 47.0
46.499314157 59.0
46.504238013 63.0
46.509161869 54.0
46.514085725 48.0
46.519009581 61.0
46.523933437 61.0
46.528857293 55.0
46.533781149 56.0
46.538705005 49.0
46.543628861 64.0
46.548552717 53.0
46.553476573 46.0
46.558400429 56.0
46.563324285 65.0
46.568248141 62.0
46.573171997 57.0
46.578095853 60.0
46.583019709 46.0
46.587943565 47.0
46.592867421 36.0
46.597791277 64.0
46.602715133 39.0
46.607638989 50.0
46.612562845 47.0
46.617486701 52.0
46.622410557 41.0
46.627334413 51.0
46.632258269 55.0
46.637182125 58.0
46.642105981 58.0
46.647029837 68.0
46.651953693 65.0
46.656877549 52.0
46.661801405 54.0
46.666725261 70.0
46.671649117 61.0
46.676572973 64.0
46.681496829 67.0
46.686420685 45.0
46.691344541 63.0
46.696268397 57.0
46.701192253 85.0
46.706116109 65.0
46.711039965 59.0
46.715963821 66.0
46.720887677 63.0
46.725811533 63.0
46.730735389 74.0
46.735659245 66.0
46.740583101 79.0
46.745506957 56.0
46.750430813 64.0
46.755354670 52.0
46.760278526 56.0
46.765202382 58.0
46.770126238 48.0
46.775050094 62.0
46.779973950 41.0
46.784897806 55.0
46.789821662 59.0
46.794745518 57.0
46.799669374 34.0
46.804593230 61.0
46.809517086 65.0
46.814440942 54.0
46.819364798 57.0
46.824288654 59.0
46.829212510 51.0
46.834136366 72.0
46.839060222 70.0
46.843984078 57.0
46.848907934 48.0
46.853831790 57.0
46.858755646 58.0
46.863679502 67.0
46.868603358 64.0
46.873527214 60.0
46.878451070 59.0
46.883374926 70.0
46.888298782 50.0
46.893222638 63.0
46.898146494 63.0
46.903070350 64.0
46.907994206 63.0
46.912918062 43.0
46.917841918 57.0
46.922765774 56.0
46.927689630 51.0
46.932613486 73.0
46.937537342 54.0
46.942461198 56.0
46.947385054 72.0
46.952308910 67.0
46.957232766 67.0
46.962156622 59.0
46.967080478 52.0
46.972004334 68.0
46.976928190 76.0
46.981852046 57.0
46.986775902 66.0
46.991699758 71.0
46.996623614 82.0
47.001547470 87.0
47.006471326 77.0
47.011395182 83.0
47.016319038 87.0
47.021242894 66.0
47.026166750 80.0
47.031090606 83.0
47.036014462 95.0
47.040938318 83.0
47.045862174 119.0
47.050786030 126.0
47.055709886 141.0
47.060633742 153.0
47.065557598 175.0
47.070481454 282.0
47.075405310 321.0
47.080329166 398.0
47.085253022 441.0
47.090176878 545.0
47.095100734 622.0
47.100024590 779.0
47.104948446 900.0
47.109872302 889.0
47.114796158 912.0
47.119720014 924.0
47.124643870 780.0
47.129567726 665.0
47.134491582 559.0
47.139415438 448.0
47.144339294 383.0
47.149263150 353.0
47.154187006 317.0
47.159110862 273.0
47.164034718 198.0
47.168958574 193.0
47.173882430 170.0
47.178806286 179.0
47.183730142 151.0
47.188653998 152.0
47.193577854 133.0
47.198501710 132.0
47.203425566 110.0
47.208349422 113.0
47.213273278 80.0
47.218197134 103.0
47.223120990 95.0
47.228044846 83.0
47.232968702 74.0
47.237892558 82.0
47.242816414 88.0
47.247740270 74.0
47.252664127 65.0
47.257587983 80.0
47.262511839 82.0
47.267435695 78.0
47.272359551 82.0
47.277283407 76.0
47.282207263 63.0
47.287131119 92.0
47.292054975 68.0
47.296978831 69.0
47.301902687 63.0
47.306826543 61.0
47.311750399 77.0
47.316674255 76.0
47.321598111 91.0
47.326521967 73.0
47.331445823 64.0
47.336369679 67.0
47.341293535 73.0
47.346217391 69.0
47.351141247 69.0
47.356065103 50.0
47.360988959 76.0
47.365912815 83.0
47.370836671 64.0
47.375760527 63.0
47.380684383 70.0
47.385608239 69.0
47.390532095 72.0
47.395455951 63.0
47.400379807 65.0
47.405303663 58.0
47.410227519 64.0
47.415151375 65.0
47.420075231 61.0
47.424999087 67.0
47.429922943 72.0
47.434846799 64.0
47.439770655 70.0
47.444694511 68.0
47.449618367 55.0
47.454542223 53.0
47.459466079 64.0
47.464389935 73.0
47.469313791 64.0
47.474237647 74.0
47.479161503 64.0
47.484085359 51.0
47.489009215 63.0
47.493933071 66.0
47.498856927 58.0
47.503780783 58.0
47.508704639 56.0
47.513628495 56.0
47.518552351 49.0
47.523476207 57.0
47.528400063 53.0
47.533323919 65.0
47.538247775 64.0
47.543171631 49.0
47.548095487 75.0
47.553019343 84.0
47.557943199 59.0
47.562867055 74.0
47.567790911 59.0
47.572714767 56.0
47.577638623 62.0
47.582562479 58.0
47.587486335 76.0
47.592410191 61.0
47.597334047 80.0
47.602257903 68.0
47.607181759 57.0
47.612105615 57.0
47.617029471 51.0
47.621953327 53.0
47.626877183 61.0
47.631801039 63.0
47.636724895 71.0
47.641648751 62.0
47.646572607 70.0
47.651496463 53.0
47.656420319 66.0
47.661344175 57.0
47.666268031 61.0
47.671191887 67.0
47.676115743 63.0
47.681039599 66.0
47.685963455 57.0
47.690887311 64.0
47.695811167 70.0
47.700735023 66.0
47.705658879 64.0
47.710582735 62.0
47.715506591 62.0
47.720430447 58.0
47.725354303 61.0
47.730278159 54.0
47.735202015 58.0
47.740125871 64.0
47.745049727 60.0
47.749973583 56.0
47.754897440 65.0
47.759821296 59.0
47.764745152 62.0
47.769669008 60.0
47.774592864 76.0
47.779516720 45.0
47.784440576 52.0
47.789364432 68.0
47.794288288 44.0
47.799212144 63.0
47.804136000 69.0
47.809059856 69.0
47.813983712 55.0
47.818907568 50.0
47.823831424 64.0
47.828755280 55.0
47.833679136 71.0
47.838602992 57.0
47.843526848 55.0
47.848450704 65.0
47.853374560 66.0
47.858298416 81.0
47.863222272 66.0
47.868146128 58.0
47.873069984 59.0
47.877993840 66.0
47.882917696 49.0
47.887841552 62.0
47.892765408 59.0
47.897689264 55.0
47.902613120 61.0
47.907536976 70.0
47.912460832 74.0
47.917384688 42.0
47.922308544 60.0
47.927232400 68.0
47.932156256 66.0
47.937080112 57.0
47.942003968 72.0
47.946927824 54.0
47.951851680 64.0
47.956775536 65.0
47.961699392 58.0
47.966623248 68.0
47.971547104 68.0
47.976470960 72.0
47.981394816 59.0
47.986318672 53.0
47.991242528 57.0
47.996166384 65.0
48.001090240 61.0
48.006014096 44.0
48.010937952 55.0
48.015861808 57.0
48.020785664 65.0
48.025709520 52.0
48.030633376 54.0
48.035557232 64.0
48.040481088 65.0
48.045404944 64.0
48.050328800 66.0
48.055252656 53.0
48.060176512 68.0
48.065100368 61.0
48.070024224 71.0
48.074948080 60.0
48.079871936 54.0
48.084795792 64.0
48.089719648 47.0
48.094643504 66.0
48.099567360 68.0
48.104491216 53.0
48.109415072 73.0
48.114338928 57.0
48.119262784 92.0
48.124186640 61.0
48.129110496 64.0
48.134034352 55.0
48.138958208 73.0
48.143882064 64.0
48.148805920 65.0
48.153729776 54.0
48.158653632 55.0
48.163577488 52.0
48.168501344 71.0
48.173425200 64.0
48.178349056 56.0
48.183272912 62.0
48.188196768 64.0
48.193120624 58.0
48.198044480 52.0
48.202968336 77.0
48.207892192 52.0
48.212816048 60.0
48.217739904 66.0
48.222663760 55.0
48.227587616 66.0
48.232511472 63.0
48.237435328 75.0
48.242359184 56.0
48.247283040 57.0
48.252206897 52.0
48.257130753 58.0
48.262054609 59.0
48.266978465 60.0
48.271902321 58.0
48.276826177 55.0
48.281750033 60.0
48.286673889 51.0
48.291597745 55.0
48.296521601 46.0
48.301445457 43.0
48.306369313 36.0
48.311293169 65.0
48.316217025 67.0
48.321140881 48.0
48.326064737 52.0
48.330988593 51.0
48.335912449 58.0
48.340836305 57.0
48.345760161 66.0
48.350684017 51.0
48.355607873 64.0
48.360531729 47.0
48.365455585 72.0
48.370379441 51.0
48.375303297 62.0
48.380227153 56.0
48.385151009 50.0
48.390074865 51.0
48.394998721 61.0
48.399922577 50.0
48.404846433 67.0
48.409770289 69.0
48.414694145 49.0
48.419618001 50.0
48.424541857 63.0
48.429465713 63.0
48.434389569 58.0
48.439313425 56.0
48.444237281 62.0
48.449161137 69.0
48.454084993 55.0
48.459008849 71.0
48.463932705 62.0
48.468856561 49.0
48.473780417 71.0
48.478704273 56.0
48.483628129 53.0
48.488551985 73.0
48.493475841 64.0
48.498399697 51.0
48.503323553 59.0
48.508247409 72.0
48.513171265 49.0
48.518095121 48.0
48.523018977 59.0
48.527942833 69.0
48.532866689 66.0
48.537790545 56.0
48.542714401 60.0
48.547638257 68.0
48.552562113 62.0
48.557485969 61.0
48.562409825 55.0
48.567333681 66.0
48.572257537 51.0
48.577181393 72.0
48.582105249 67.0
48.587029105 42.0
48.591952961 65.0
48.596876817 46.0
48.601800673 69.0
48.606724529 60.0
48.611648385 48.0
48.616572241 64.0
48.621496097 53.0
48.626419953 55.0
48.631343809 57.0
48.636267665 64.0
48.641191521 75.0
48.646115377 62.0
48.651039233 57.0
48.655963089 70.0
48.660886945 73.0
48.665810801 62.0
48.670734657 65.0
48.675658513 50.0
48.680582369 67.0
48.685506225 65.0
48.690430081 59.0
48.695353937 54.0
48.700277793 67.0
48.705201649 56.0
48.710125505 57.0
48.715049361 51.0
48.719973217 68.0
48.724897073 64.0
48.729820929 61.0
48.734744785 60.0
48.739668641 74.0
48.744592497 60.0
48.749516353 57.0
48.754440210 56.0
48.759364066 64.0
48.764287922 63.0
48.769211778 63.0
48.774135634 57.0
48.779059490 73.0
48.783983346 48.0
48.788907202 71.0
48.793831058 58.0
48.798754914 73.0
48.803678770 64.0
48.808602626 61.0
48.813526482 58.0
48.818450338 61.0
48.823374194 63.0
48.828298050 70.0
48.833221906 55.0
48.838145762 49.0
48.843069618 58.0
48.847993474 68.0
48.852917330 66.0
48.857841186 61.0
48.862765042 50.0
48.867688898 53.0
48.872612754 53.0
48.877536610 43.0
48.882460466 69.0
48.887384322 58.0
48.892308178 49.0
48.897232034 72.0
48.902155890 69.0
48.907079746 52.0
48.912003602 63.0
48.916927458 49.0
48.921851314 60.0
48.926775170 66.0
48.931699026 54.0
48.936622882 69.0
48.941546738 55.0
48.946470594 63.0
48.951394450 70.0
48.956318306 65.0
48.961242162 54.0
48.966166018 56.0
48.971089874 69.0
48.976013730 55.0
48.980937586 64.0
48.985861442 73.0
48.990785298 50.0
48.995709154 59.0
49.000633010 51.0
49.005556866 52.0
49.010480722 58.0
49.015404578 51.0
49.020328434 61.0
49.025252290 65.0
49.030176146 50.0
49.035100002 67.0
49.040023858 70.0
49.044947714 45.0
49.049871570 54.0
49.054795426 59.0
49.059719282 50.0
49.064643138 50.0
49.069566994 60.0
49.074490850 59.0
49.079414706 51.0
49.084338562 46.0
49.089262418 72.0
49.094186274 47.0
49.099110130 66.0
49.104033986 61.0
49.108957842 59.0
49.113881698 63.0
49.118805554 69.0
49.123729410 51.0
49.128653266 50.0
49.133577122 56.0
49.138500978 52.0
49.143424834 60.0
49.148348690 68.0
49.153272546 68.0
49.158196402 57.0
49.163120258 58.0
49.168044114 75.0
49.172967970 52.0
49.177891826 64.0
49.182815682 60.0
49.187739538 50.0
49.192663394 84.0
49.197587250 50.0
49.202511106 56.0
49.207434962 78.0
49.212358818 63.0
49.217282674 72.0
49.222206530 62.0
49.227130386 58.0
49.232054242 60.0
49.236978098 71.0
49.241901954 70.0
49.246825810 68.0
49.251749667 62.0
49.256673523 78.0
49.261597379 51.0
49.266521235 59.0
49.271445091 66.0
49.276368947 69.0
49.281292803 56.0
49.286216659 64.0
49.291140515 53.0
49.296064371 54.0
49.300988227 73.0
49.305912083 56.0
49.310835939 65.0
49.315759795 53.0
49.320683651 62.0
49.325607507 57.0
49.330531363 73.0
49.335455219 54.0
49.340379075 52.0
49.345302931 54.0
49.350226787 51.0
49.355150643 60.0
49.360074499 52.0
49.364998355 63.0
49.369922211 75.0
49.374846067 61.0
49.379769923 52.0
49.384693779 83.0
49.389617635 64.0
49.394541491 58.0
49.399465347 70.0
49.404389203 69.0
49.409313059 57.0
49.414236915 57.0
49.419160771 60.0
49.424084627 55.0
49.429008483 60.0
49.433932339 68.0
49.438856195 50.0
49.443780051 68.0
49.448703907 65.0
49.453627763 66.0
49.458551619 61.0
49.463475475 63.0
49.468399331 57.0
49.473323187 56.0
49.478247043 68.0
49.483170899 70.0
49.488094755 68.0
49.493018611 60.0
49.497942467 60.0
49.502866323 72.0
49.507790179 52.0
49.512714035 72.0
49.517637891 58.0
49.522561747 58.0
49.527485603 68.0
49.532409459 71.0
49.537333315 60.0
49.542257171 66.0
49.547181027 61.0
49.552104883 58.0
49.557028739 67.0
49.561952595 72.0
49.566876451 81.0
49.571800307 65.0
49.576724163 69.0
49.581648019 73.0
49.586571875 70.0
49.591495731 70.0
49.596419587 66.0
49.601343443 67.0
49.606267299 64.0
49.611191155 53.0
49.616115011 76.0
49.621038867 51.0
49.625962723 73.0
49.630886579 80.0
49.635810435 50.0
49.640734291 60.0
49.645658147 59.0
49.650582003 71.0
49.655505859 60.0
49.660429715 55.0
49.665353571 60.0
49.670277427 79.0
49.675201283 57.0
49.680125139 77.0
49.685048995 68.0
49.689972851 53.0
49.694896707 60.0
49.699820563 62.0
49.704744419 50.0
49.709668275 56.0
49.714592131 58.0
49.719515987 59.0
49.724439843 65.0
49.729363699 58.0
49.734287555 71.0
49.739211411 64.0
49.744135267 74.0
49.749059123 63.0
49.753982980 66.0
49.758906836 72.0
49.763830692 68.0
49.768754548 62.0
49.773678404 60.0
49.778602260 56.0
49.783526116 76.0
49.788449972 64.0
49.793373828 62.0
49.798297684 67.0
49.803221540 58.0
49.808145396 70.0
49.813069252 64.0
49.817993108 77.0
49.822916964 60.0
49.827840820 55.0
49.832764676 50.0
49.837688532 68.0
49.842612388 56.0
49.847536244 68.0
49.852460100 69.0
49.857383956 53.0
49.862307812 64.0
49.867231668 71.0
49.872155524 66.0
49.877079380 66.0
49.882003236 59.0
49.886927092 67.0
49.891850948 57.0
49.896774804 80.0
49.901698660 68.0
49.906622516 78.0
49.911546372 70.0
49.916470228 84.0
49.921394084 65.0
49.926317940 68.0
49.931241796 54.0
49.936165652 77.0
49.941089508 81.0
49.946013364 93.0
49.950937220 75.0
49.955861076 69.0
49.960784932 81.0
49.965708788 73.0
49.970632644 53.0
49.975556500 67.0
49.980480356 81.0
49.985404212 73.0
49.990328068 66.0
49.995251924 69.0
50.000175780 84.0
50.005099636 76.0
50.010023492 67.0
50.014947348 78.0
50.019871204 59.0
50.024795060 69.0
50.029718916 82.0
50.034642772 74.0
50.039566628 68.0
50.044490484 84.0
50.049414340 61.0
50.054338196 81.0
50.059262052 90.0
50.064185908 71.0
50.069109764 78.0
50.074033620 71.0
50.078957476 86.0
50.083881332 73.0
50.088805188 81.0
50.093729044 62.0
50.098652900 82.0
50.103576756 81.0
50.108500612 74.0
50.113424468 68.0
50.118348324 96.0
50.123272180 81.0
50.128196036 92.0
50.133119892 107.0
50.138043748 95.0
50.142967604 125.0
50.147891460 128.0
50.152815316 90.0
50.157739172 107.0
50.162663028 114.0
50.167586884 124.0
50.172510740 110.0
50.177434596 102.0
50.182358452 92.0
50.187282308 81.0
50.192206164 87.0
50.197130020 102.0
50.202053876 96.0
50.206977732 91.0
50.211901588 100.0
50.216825444 86.0
50.221749300 97.0
50.226673156 70.0
50.231597012 61.0
50.236520868 83.0
50.241444724 93.0
50.246368580 76.0
50.251292437 78.0
50.256216293 91.0
50.261140149 86.0
50.266064005 77.0
50.270987861 80.0
50.275911717 90.0
50.280835573 93.0
50.285759429 80.0
50.290683285 64.0
50.295607141 62.0
50.300530997 88.0
50.305454853 65.0
50.310378709 76.0
50.315302565 77.0
50.320226421 82.0
50.325150277 93.0
50.330074133 79.0
50.334997989 95.0
50.339921845 91.0
50.344845701 76.0
50.349769557 66.0
50.354693413 91.0
50.359617269 66.0
50.364541125 76.0
50.369464981 82.0
50.374388837 83.0
50.379312693 82.0
50.384236549 78.0
50.389160405 68.0
50.394084261 66.0
50.399008117 83.0
50.403931973 78.0
50.408855829 71.0
50.413779685 89.0
50.418703541 84.0
50.423627397 69.0
50.428551253 61.0
50.433475109 86.0
50.438398965 78.0
50.443322821 82.0
50.448246677 79.0
50.453170533 83.0
50.458094389 89.0
50.463018245 75.0
50.467942101 75.0
50.472865957 64.0
50.477789813 77.0
50.482713669 71.0
50.487637525 75.0
50.492561381 83.0
50.497485237 61.0
50.502409093 71.0
50.507332949 80.0
50.512256805 87.0
50.517180661 92.0
50.522104517 66.0
50.527028373 93.0
50.531952229 82.0
50.536876085 96.0
50.541799941 79.0
50.546723797 70.0
50.551647653 73.0
50.556571509 82.0
50.561495365 75.0
50.566419221 98.0
50.571343077 79.0
50.576266933 84.0
50.581190789 84.0
50.586114645 91.0
50.591038501 73.0
50.595962357 86.0
50.600886213 74.0
50.605810069 77.0
50.610733925 87.0
50.615657781 76.0
50.620581637 96.0
50.625505493 73.0
50.630429349 95.0
50.635353205 89.0
50.640277061 87.0
50.645200917 86.0
50.650124773 84.0
50.655048629 87.0
50.659972485 88.0
50.664896341 96.0
50.669820197 84.0
50.674744053 84.0
50.679667909 105.0
50.684591765 77.0
50.689515621 98.0
50.694439477 70.0
50.699363333 70.0
50.704287189 92.0
50.709211045 72.0
50.714134901 86.0
50.719058757 92.0
50.723982613 88.0
50.728906469 86.0
50.733830325 79.0
50.738754181 89.0
50.743678037 87.0
50.748601893 87.0
50.753525750 94.0
50.758449606 85.0
50.763373462 91.0
50.768297318 83.0
50.773221174 88.0
50.778145030 92.0
50.783068886 101.0
50.787992742 98.0
50.792916598 89.0
50.797840454 96.0
50.802764310 84.0
50.807688166 92.0
50.812612022 94.0
50.817535878 88.0
50.822459734 81.0
50.827383590 108.0
50.832307446 90.0
50.837231302 101.0
50.842155158 101.0
50.847079014 91.0
50.852002870 88.0
50.856926726 105.0
50.861850582 89.0
50.866774438 85.0
50.871698294 91.0
50.876622150 82.0
50.881546006 98.0
50.886469862 100.0
50.891393718 93.0
50.896317574 97.0
50.901241430 92.0
50.906165286 90.0
50.911089142 103.0
50.916012998 100.0
50.920936854 86.0
50.925860710 92.0
50.930784566 101.0
50.935708422 106.0
50.940632278 86.0
50.945556134 81.0
50.950479990 112.0
50.955403846 110.0
50.960327702 117.0
50.965251558 104.0
50.970175414 104.0
50.975099270 119.0
50.980023126 119.0
50.984946982 117.0
50.989870838 100.0
50.994794694 105.0
50.999718550 119.0
51.004642406 101.0
51.009566262 100.0
51.014490118 106.0
51.019413974 102.0
51.024337830 114.0
51.029261686 137.0
51.034185542 125.0
51.039109398 131.0
51.044033254 121.0
51.048957110 99.0
51.053880966 122.0
51.058804822 110.0
51.063728678 108.0
51.068652534 133.0
51.073576390 116.0
51.078500246 96.0
51.083424102 108.0
51.088347958 114.0
51.093271814 123.0
51.098195670 119.0
51.103119526 116.0
51.108043382 117.0
51.112967238 110.0
51.117891094 126.0
51.122814950 108.0
51.127738806 112.0
51.132662662 128.0
51.137586518 138.0
51.142510374 132.0
51.147434230 133.0
51.152358086 129.0
51.157281942 139.0
51.162205798 125.0
51.167129654 139.0
51.172053510 124.0
51.176977366 133.0
51.181901222 125.0
51.186825078 124.0
51.191748934 136.0
51.196672790 120.0
51.201596646 117.0
51.206520502 134.0
51.211444358 153.0
51.216368214 132.0
51.221292070 115.0
51.226215926 136.0
51.231139782 135.0
51.236063638 129.0
51.240987494 119.0
51.245911350 133.0
51.250835207 145.0
51.255759063 149.0
51.260682919 126.0
51.265606775 164.0
51.270530631 140.0
51.275454487 163.0
51.280378343 148.0
51.285302199 149.0
51.290226055 130.0
51.295149911 126.0
51.300073767 147.0
51.304997623 169.0
51.309921479 138.0
51.314845335 162.0
51.319769191 171.0
51.324693047 142.0
51.329616903 145.0
51.334540759 146.0
51.339464615 170.0
51.344388471 185.0
51.349312327 154.0
51.354236183 147.0
51.359160039 149.0
51.364083895 137.0
51.369007751 132.0
51.373931607 137.0
51.378855463 158.0
51.383779319 153.0
51.388703175 162.0
51.393627031 150.0
51.398550887 154.0
51.403474743 159.0
51.408398599 178.0
51.413322455 167.0
51.418246311 174.0
51.423170167 183.0
51.428094023 154.0
51.433017879 161.0
51.437941735 182.0
51.442865591 166.0
51.447789447 182.0
51.452713303 157.0
51.457637159 183.0
51.462561015 170.0
51.467484871 178.0
51.472408727 187.0
51.477332583 193.0
51.482256439 177.0
51.487180295 187.0
51.492104151 166.0
51.497028007 183.0
51.501951863 177.0
51.506875719 199.0
51.511799575 204.0
51.516723431 184.0
51.521647287 190.0
51.526571143 195.0
51.531494999 180.0
51.536418855 197.0
51.541342711 172.0
51.546266567 202.0
51.551190423 199.0
51.556114279 190.0
51.561038135 188.0
51.565961991 200.0
51.570885847 209.0
51.575809703 200.0
51.580733559 208.0
51.585657415 193.0
51.590581271 204.0
51.595505127 196.0
51.600428983 214.0
51.605352839 202.0
51.610276695 219.0
51.615200551 188.0
51.620124407 199.0
51.625048263 213.0
51.629972119 211.0
51.634895975 206.0
51.639819831 266.0
51.644743687 219.0
51.649667543 259.0
51.654591399 267.0
51.659515255 295.0
51.664439111 208.0
51.669362967 275.0
51.674286823 278.0
51.679210679 295.0
51.684134535 281.0
51.689058391 305.0
51.693982247 270.0
51.698906103 266.0
51.703829959 270.0
51.708753815 275.0
51.713677671 274.0
51.718601527 256.0
51.723525383 284.0
51.728449239 296.0
51.733373095 281.0
51.738296951 271.0
51.743220807 283.0
51.748144663 267.0
51.753068520 296.0
51.757992376 279.0
51.762916232 270.0
51.767840088 291.0
51.772763944 287.0
51.777687800 272.0
51.782611656 283.0
51.787535512 333.0
51.792459368 311.0
51.797383224 269.0
51.802307080 299.0
51.807230936 328.0
51.812154792 295.0
51.817078648 290.0
51.822002504 306.0
51.826926360 320.0
51.831850216 315.0
51.836774072 322.0
51.841697928 322.0
51.846621784 313.0
51.851545640 268.0
51.856469496 323.0
51.861393352 326.0
51.866317208 323.0
51.871241064 335.0
51.876164920 362.0
51.881088776 346.0
51.886012632 359.0
51.890936488 360.0
51.895860344 405.0
51.900784200 356.0
51.905708056 398.0
51.910631912 362.0
51.915555768 362.0
51.920479624 338.0
51.925403480 381.0
51.930327336 368.0
51.935251192 356.0
51.940175048 377.0
51.945098904 387.0
51.950022760 406.0
51.954946616 395.0
51.959870472 426.0
51.964794328 415.0
51.969718184 393.0
51.974642040 412.0
51.979565896 405.0
51.984489752 395.0
51.989413608 417.0
51.994337464 438.0
51.999261320 460.0
52.004185176 483.0
52.009109032 466.0
52.014032888 446.0
52.018956744 445.0
52.023880600 477.0
52.028804456 495.0
52.033728312 408.0
52.038652168 494.0
52.043576024 482.0
52.048499880 489.0
52.053423736 512.0
52.058347592 503.0
52.063271448 524.0
52.068195304 472.0
52.073119160 551.0
52.078043016 510.0
52.082966872 596.0
52.087890728 530.0
52.092814584 554.0
52.097738440 570.0
52.102662296 606.0
52.107586152 598.0
52.112510008 646.0
52.117433864 658.0
52.122357720 662.0
52.127281576 656.0
52.132205432 641.0
52.137129288 695.0
52.142053144 714.0
52.146977000 727.0
52.151900856 680.0
52.156824712 746.0
52.161748568 750.0
52.166672424 815.0
52.171596280 791.0
52.176520136 884.0
52.181443992 912.0
52.186367848 958.0
52.191291704 1020.0
52.196215560 1104.0
52.201139416 1144.0
52.206063272 1171.0
52.210987128 1324.0
52.215910984 1436.0
52.220834840 1514.0
52.225758696 1657.0
52.230682552 1647.0
52.235606408 1825.0
52.240530264 1859.0
52.245454120 2033.0
52.250377977 2141.0
52.255301833 2221.0
52.260225689 2104.0
52.265149545 2261.0
52.270073401 2253.0
52.274997257 2294.0
52.279921113 2213.0
52.284844969 2313.0
52.289768825 2252.0
52.294692681 2170.0
52.299616537 2195.0
52.304540393 2103.0
52.309464249 2191.0
52.314388105 2117.0
52.319311961 2187.0
52.324235817 2093.0
52.329159673 2254.0
52.334083529 2213.0
52.339007385 2237.0
52.343931241 2196.0
52.348855097 2332.0
52.353778953 2355.0
52.358702809 2516.0
52.363626665 2596.0
52.368550521 2788.0
52.373474377 2874.0
52.378398233 3094.0
52.383322089 3441.0
52.388245945 3568.0
52.393169801 4068.0
52.398093657 4283.0
52.403017513 4818.0
52.407941369 5238.0
52.412865225 5622.0
52.417789081 6387.0
52.422712937 7142.0
52.427636793 8224.0
52.432560649 9048.0
52.437484505 10699.0
52.442408361 12618.0
52.447332217 15066.0
52.452256073 18241.0
52.457179929 22921.0
52.462103785 29178.0
52.467027641 39439.0
52.471951497 55738.0
52.476875353 84121.0
52.481799209 126839.0
52.486723065 182101.0
52.491646921 227229.0
52.496570777 255228.0
52.501494633 265536.0
52.506418489 257141.0
52.511342345 228810.0
52.516266201 183115.0
52.521190057 135287.0
52.526113913 94340.0
52.531037769 67989.0
52.535961625 49338.0
52.540885481 36982.0
52.545809337 28275.0
52.550733193 22555.0
52.555657049 18380.0
52.560580905 15630.0
52.565504761 13848.0
52.570428617 12722.0
52.575352473 11990.0
52.580276329 12064.0
52.585200185 12392.0
52.590124041 13377.0
52.595047897 15101.0
52.599971753 17546.0
52.604895609 22069.0
52.609819465 28076.0
52.614743321 39094.0
52.619667177 54602.0
52.624591033 76767.0
52.629514889 98552.0
52.634438745 117176.0
52.639362601 126347.0
52.644286457 127730.0
52.649210313 119475.0
52.654134169 102743.0
52.659058025 82363.0
52.663981881 61478.0
52.668905737 44812.0
52.673829593 32662.0
52.678753449 23966.0
52.683677305 18084.0
52.688601161 14318.0
52.693525017 11281.0
52.698448873 9206.0
52.703372729 7654.0
52.708296585 6667.0
52.713220441 5717.0
52.718144297 5097.0
52.723068153 4558.0
52.727992009 4205.0
52.732915865 3844.0
52.737839721 3463.0
52.742763577 3289.0
52.747687433 3089.0
52.752611290 2843.0
52.757535146 2667.0
52.762459002 2562.0
52.767382858 2425.0
52.772306714 2223.0
52.777230570 2210.0
52.782154426 2019.0
52.787078282 1882.0
52.792002138 1884.0
52.796925994 1869.0
52.801849850 1697.0
52.806773706 1594.0
52.811697562 1649.0
52.816621418 1511.0
52.821545274 1492.0
52.826469130 1426.0
52.831392986 1372.0
52.836316842 1359.0
52.841240698 1313.0
52.846164554 1207.0
52.851088410 1221.0
52.856012266 1206.0
52.860936122 1131.0
52.865859978 1109.0
52.870783834 988.0
52.875707690 1034.0
52.880631546 997.0
52.885555402 1014.0
52.890479258 967.0
52.895403114 963.0
52.900326970 909.0
52.905250826 876.0
52.910174682 845.0
52.915098538 831.0
52.920022394 860.0
52.924946250 813.0
52.929870106 835.0
52.934793962 780.0
52.939717818 776.0
52.944641674 711.0
52.949565530 723.0
52.954489386 691.0
52.959413242 685.0
52.964337098 696.0
52.969260954 683.0
52.974184810 646.0
52.979108666 583.0
52.984032522 617.0
52.988956378 609.0
52.993880234 588.0
52.998804090 580.0
53.003727946 585.0
53.008651802 595.0
53.013575658 525.0
53.018499514 598.0
53.023423370 510.0
53.028347226 597.0
53.033271082 492.0
53.038194938 514.0
53.043118794 467.0
53.048042650 450.0
53.052966506 462.0
53.057890362 452.0
53.062814218 505.0
53.067738074 516.0
53.072661930 474.0
53.077585786 445.0
53.082509642 436.0
53.087433498 437.0
53.092357354 429.0
53.097281210 431.0
53.102205066 404.0
53.107128922 415.0
53.112052778 437.0
53.116976634 395.0
53.121900490 368.0
53.126824346 397.0
53.131748202 396.0
53.136672058 372.0
53.141595914 368.0
53.146519770 370.0
53.151443626 410.0
53.156367482 360.0
53.161291338 363.0
53.166215194 350.0
53.171139050 331.0
53.176062906 344.0
53.180986762 346.0
53.185910618 349.0
53.190834474 295.0
53.195758330 346.0
53.200682186 338.0
53.205606042 310.0
53.210529898 344.0
53.215453754 283.0
53.220377610 291.0
53.225301466 277.0
53.230225322 308.0
53.235149178 279.0
53.240073034 280.0
53.244996890 296.0
53.249920747 318.0
53.254844603 295.0
53.259768459 270.0
53.264692315 318.0
53.269616171 274.0
53.274540027 299.0
53.279463883 263.0
53.284387739 283.0
53.289311595 199.0
53.294235451 264.0
53.299159307 277.0
53.304083163 273.0
53.309007019 262.0
53.313930875 255.0
53.318854731 213.0
53.323778587 255.0
53.328702443 210.0
53.333626299 255.0
53.338550155 258.0
53.343474011 192.0
53.348397867 217.0
53.353321723 201.0
53.358245579 206.0
53.363169435 165.0
53.368093291 193.0
53.373017147 263.0
53.377941003 207.0
53.382864859 186.0
53.387788715 214.0
53.392712571 188.0
53.397636427 188.0
53.402560283 168.0
53.407484139 173.0
53.412407995 181.0
53.417331851 179.0
53.422255707 194.0
53.427179563 197.0
53.432103419 185.0
53.437027275 185.0
53.441951131 163.0
53.446874987 177.0
53.451798843 179.0
53.456722699 148.0
53.461646555 160.0
53.466570411 173.0
53.471494267 147.0
53.476418123 152.0
53.481341979 159.0
53.486265835 157.0
53.491189691 159.0
53.496113547 158.0
53.501037403 125.0
53.505961259 146.0
53.510885115 148.0
53.515808971 169.0
53.520732827 156.0
53.525656683 120.0
53.530580539 135.0
53.535504395 167.0
53.540428251 146.0
53.545352107 122.0
53.550275963 145.0
53.555199819 136.0
53.560123675 138.0
53.565047531 135.0
53.569971387 121.0
53.574895243 134.0
53.579819099 130.0
53.584742955 167.0
53.589666811 127.0
53.594590667 138.0
53.599514523 142.0
53.604438379 139.0
53.609362235 113.0
53.614286091 128.0
53.619209947 140.0
53.624133803 131.0
53.629057659 117.0
53.633981515 129.0
53.638905371 141.0
53.643829227 117.0
53.648753083 127.0
53.653676939 118.0
53.658600795 113.0
53.663524651 113.0
53.668448507 129.0
53.673372363 112.0
53.678296219 126.0
53.683220075 117.0
53.688143931 102.0
53.693067787 96.0
53.697991643 111.0
53.702915499 118.0
53.707839355 117.0
53.712763211 123.0
53.717687067 106.0
53.722610923 113.0
53.727534779 118.0
53.732458635 114.0
53.737382491 107.0
53.742306347 118.0
53.747230203 109.0
53.752154060 115.0
53.757077916 96.0
53.762001772 109.0
53.766925628 117.0
53.771849484 106.0
53.776773340 99.0
53.781697196 108.0
53.786621052 98.0
53.791544908 96.0
53.796468764 104.0
53.801392620 96.0
53.806316476 134.0
53.811240332 86.0
53.816164188 89.0
53.821088044 107.0
53.826011900 110.0
53.830935756 91.0
53.835859612 86.0
53.840783468 104.0
53.845707324 110.0
53.850631180 98.0
53.855555036 93.0
53.860478892 112.0
53.865402748 103.0
53.870326604 95.0
53.875250460 97.0
53.880174316 109.0
53.885098172 108.0
53.890022028 89.0
53.894945884 104.0
53.899869740 104.0
53.904793596 95.0
53.909717452 90.0
53.914641308 77.0
53.919565164 105.0
53.924489020 93.0
53.929412876 93.0
53.934336732 104.0
53.939260588 102.0
53.944184444 95.0
53.949108300 96.0
53.954032156 80.0
53.958956012 99.0
53.963879868 103.0
53.968803724 89.0
53.973727580 85.0
53.978651436 72.0
53.983575292 91.0
53.988499148 100.0
53.993423004 91.0
53.998346860 80.0
54.003270716 78.0
54.008194572 105.0
54.013118428 101.0
54.018042284 112.0
54.022966140 82.0
54.027889996 82.0
54.032813852 80.0
54.037737708 76.0
54.042661564 78.0
54.047585420 86.0
54.052509276 82.0
54.057433132 79.0
54.062356988 88.0
54.067280844 83.0
54.072204700 87.0
54.077128556 89.0
54.082052412 107.0
54.086976268 88.0
54.091900124 83.0
54.096823980 91.0
54.101747836 88.0
54.106671692 89.0
54.111595548 84.0
54.116519404 75.0
54.121443260 80.0
54.126367116 87.0
54.131290972 90.0
54.136214828 73.0
54.141138684 73.0
54.146062540 88.0
54.150986396 88.0
54.155910252 96.0
54.160834108 67.0
54.165757964 86.0
54.170681820 86.0
54.175605676 89.0
54.180529532 66.0
54.185453388 59.0
54.190377244 77.0
54.195301100 77.0
54.200224956 81.0
54.205148812 88.0
54.210072668 53.0
54.214996524 88.0
54.219920380 69.0
54.224844236 83.0
54.229768092 73.0
54.234691948 83.0
54.239615804 72.0
54.244539660 78.0
54.249463517 94.0
54.254387373 78.0
54.259311229 67.0
54.264235085 69.0
54.269158941 87.0
54.274082797 78.0
54.279006653 80.0
54.283930509 70.0
54.288854365 86.0
54.293778221 74.0
54.298702077 86.0
54.303625933 81.0
54.308549789 84.0
54.313473645 67.0
54.318397501 71.0
54.323321357 116.0
54.328245213 81.0
54.333169069 79.0
54.338092925 83.0
54.343016781 77.0
54.347940637 72.0
54.352864493 62.0
54.357788349 80.0
54.362712205 86.0
54.367636061 79.0
54.372559917 77.0
54.377483773 70.0
54.382407629 57.0
54.387331485 80.0
54.392255341 78.0
54.397179197 70.0
54.402103053 81.0
54.407026909 70.0
54.411950765 81.0
54.416874621 71.0
54.421798477 59.0
54.426722333 61.0
54.431646189 62.0
54.436570045 73.0
54.441493901 72.0
54.446417757 75.0
54.451341613 70.0
54.456265469 64.0
54.461189325 54.0
54.466113181 80.0
54.471037037 93.0
54.475960893 76.0
54.480884749 88.0
54.485808605 64.0
54.490732461 76.0
54.495656317 80.0
54.500580173 81.0
54.505504029 73.0
54.510427885 76.0
54.515351741 79.0
54.520275597 88.0
54.525199453 77.0
54.530123309 70.0
54.535047165 82.0
54.539971021 71.0
54.544894877 82.0
54.549818733 77.0
54.554742589 72.0
54.559666445 93.0
54.564590301 93.0
54.569514157 69.0
54.574438013 79.0
54.579361869 90.0
54.584285725 73.0
54.589209581 87.0
54.594133437 76.0
54.599057293 68.0
54.603981149 91.0
54.608905005 71.0
54.613828861 74.0
54.618752717 76.0
54.623676573 79.0
54.628600429 78.0
54.633524285 81.0
54.638448141 67.0
54.643371997 65.0
54.648295853 79.0
54.653219709 82.0
54.658143565 86.0
54.663067421 79.0
54.667991277 79.0
54.672915133 86.0
54.677838989 63.0
54.682762845 85.0
54.687686701 94.0
54.692610557 81.0
54.697534413 79.0
54.702458269 80.0
54.707382125 78.0
54.712305981 94.0
54.717229837 81.0
54.722153693 97.0
54.727077549 92.0
54.732001405 91.0
54.736925261 95.0
54.741849117 80.0
54.746772973 86.0
54.751696830 88.0
54.756620686 93.0
54.761544542 81.0
54.766468398 79.0
54.771392254 81.0
54.776316110 71.0
54.781239966 79.0
54.786163822 66.0
54.791087678 76.0
54.796011534 72.0
54.800935390 93.0
54.805859246 71.0
54.810783102 96.0
54.815706958 64.0
54.820630814 76.0
54.825554670 77.0
54.830478526 65.0
54.835402382 83.0
54.840326238 68.0
54.845250094 76.0
54.850173950 92.0
54.855097806 88.0
54.860021662 89.0
54.864945518 80.0
54.869869374 72.0
54.874793230 82.0
54.879717086 76.0
54.884640942 101.0
54.889564798 75.0
54.894488654 79.0
54.899412510 74.0
54.904336366 68.0
54.909260222 61.0
54.914184078 61.0
54.919107934 82.0
54.924031790 61.0
54.928955646 76.0
54.933879502 79.0
54.938803358 79.0
54.943727214 66.0
54.948651070 71.0
54.953574926 70.0
54.958498782 59.0
54.963422638 68.0
54.968346494 79.0
54.973270350 86.0
54.978194206 66.0
54.983118062 78.0
54.988041918 54.0
54.992965774 61.0
54.997889630 62.0
