55.001861930 63.0
55.006785786 56.0
55.011709642 59.0
55.016633498 51.0
55.021557354 63.0
55.026481210 66.0
55.031405066 56.0
55.036328922 42.0
55.041252778 58.0
55.046176634 52.0
55.051100490 51.0
55.056024346 43.0
55.060948202 51.0
55.065872058 57.0
55.070795914 56.0
55.075719770 47.0
55.080643626 54.0
55.085567482 53.0
55.090491338 57.0
55.095415194 57.0
55.100339050 41.0
55.105262906 62.0
55.110186762 82.0
55.115110618 60.0
55.120034474 52.0
55.124958330 60.0
55.129882186 59.0
55.134806042 54.0
55.139729898 53.0
55.144653754 51.0
55.149577610 50.0
55.154501466 58.0
55.159425322 54.0
55.164349178 56.0
55.169273034 60.0
55.174196890 43.0
55.179120746 62.0
55.184044602 59.0
55.188968459 60.0
55.193892315 54.0
55.198816171 43.0
55.203740027 50.0
55.208663883 44.0
55.213587739 43.0
55.218511595 47.0
55.223435451 49.0
55.228359307 50.0
55.233283163 45.0
55.238207019 59.0
55.243130875 56.0
55.248054731 46.0
55.252978587 43.0
55.257902443 62.0
55.262826299 53.0
55.267750155 54.0
55.272674011 57.0
55.277597867 50.0
55.282521723 55.0
55.287445579 64.0
55.292369435 72.0
55.297293291 55.0
55.302217147 55.0
55.307141003 58.0
55.312064859 39.0
55.316988715 51.0
55.321912571 50.0
55.326836427 60.0
55.331760283 56.0
55.336684139 51.0
55.341607995 56.0
55.346531851 43.0
55.351455707 55.0
55.356379563 53.0
55.361303419 60.0
55.366227275 41.0
55.371151131 71.0
55.376074987 61.0
55.380998843 58.0
55.385922699 43.0
55.390846555 63.0
55.395770411 60.0
55.400694267 59.0
55.405618123 47.0
55.410541979 64.0
55.415465835 52.0
55.420389691 44.0
55.425313547 57.0
55.430237403 58.0
55.435161259 51.0
55.440085115 61.0
55.445008971 64.0
55.449932827 44.0
55.454856683 63.0
55.459780539 60.0
55.464704395 56.0
55.469628251 57.0
55.474552107 52.0
55.479475963 52.0
55.484399819 47.0
55.489323675 58.0
55.494247531 62.0
55.499171387 55.0
55.504095243 52.0
55.509019099 51.0
55.513942955 54.0
55.518866811 45.0
55.523790667 47.0
55.528714523 55.0
55.533638379 46.0
55.538562235 54.0
55.543486091 45.0
55.548409947 55.0
55.553333803 46.0
55.558257660 58.0
55.563181516 52.0
55.568105372 59.0
55.573029228 56.0
55.577953084 43.0
55.582876940 48.0
55.587800796 47.0
55.592724652 64.0
55.597648508 61.0
55.602572364 46.0
55.607496220 67.0
55.612420076 63.0
55.617343932 56.0
55.622267788 45.0
55.627191644 50.0
55.632115500 67.0
55.637039356 53.0
55.641963212 64.0
55.646887068 64.0
55.651810924 57.0
55.656734780 66.0
55.661658636 47.0
55.666582492 59.0
55.671506348 62.0
55.676430204 44.0
55.681354060 45.0
55.686277916 80.0
55.691201772 50.0
55.696125628 41.0
55.701049484 51.0
55.705973340 68.0
55.710897196 55.0
55.715821052 47.0
55.720744908 64.0
55.725668764 49.0
55.730592620 30.0
55.735516476 64.0
55.740440332 66.0
55.745364188 46.0
55.750288044 63.0
55.755211900 55.0
55.760135756 48.0
55.765059612 52.0
55.769983468 61.0
55.774907324 51.0
55.779831180 56.0
55.784755036 61.0
55.789678892 42.0
55.794602748 65.0
55.799526604 55.0
55.804450460 63.0
55.809374316 68.0
55.814298172 58.0
55.819222028 54.0
55.824145884 53.0
55.829069740 50.0
55.833993596 71.0
55.838917452 59.0
55.843841308 53.0
55.848765164 48.0
55.853689020 56.0
55.858612876 57.0
55.863536732 50.0
55.868460588 48.0
55.873384444 47.0
55.878308300 34.0
55.883232156 52.0
55.888156012 57.0
55.893079868 52.0
55.898003724 54.0
55.902927580 48.0
55.907851436 54.0
55.912775292 55.0
55.917699148 51.0
55.922623004 49.0
55.927546860 53.0
55.932470717 49.0
55.937394573 52.0
55.942318429 45.0
55.947242285 54.0
55.952166141 43.0
55.957089997 55.0
55.962013853 62.0
55.966937709 44.0
55.971861565 52.0
55.976785421 64.0
55.981709277 53.0
55.986633133 55.0
55.991556989 47.0
55.996480845 59.0
56.001404701 52.0
56.006328557 46.0
56.011252413 58.0
56.016176269 49.0
56.021100125 66.0
56.026023981 47.0
56.030947837 59.0
56.035871693 58.0
56.040795549 46.0
56.045719405 49.0
56.050643261 48.0
56.055567117 60.0
56.060490973 56.0
56.065414829 62.0
56.070338685 49.0
56.075262541 61.0
56.080186397 62.0
56.085110253 57.0
56.090034109 42.0
56.094957965 38.0
56.099881821 55.0
56.104805677 47.0
56.109729533 59.0
56.114653389 50.0
56.119577245 54.0
56.124501101 57.0
56.129424957 64.0
56.134348813 63.0
56.139272669 53.0
56.144196525 56.0
56.149120381 60.0
56.154044237 59.0
56.158968093 46.0
56.163891949 54.0
56.168815805 65.0
56.173739661 57.0
56.178663517 49.0
56.183587373 63.0
56.188511229 50.0
56.193435085 53.0
56.198358941 54.0
56.203282797 46.0
56.208206653 58.0
56.213130509 84.0
56.218054365 53.0
56.222978221 63.0
56.227902077 50.0
56.232825933 56.0
56.237749789 72.0
56.242673645 53.0
56.247597501 58.0
56.252521357 61.0
56.257445213 54.0
56.262369069 48.0
56.267292925 61.0
56.272216781 48.0
56.277140637 52.0
56.282064493 47.0
56.286988349 55.0
56.291912205 57.0
56.296836061 46.0
56.301759918 58.0
56.306683774 60.0
56.311607630 59.0
56.316531486 55.0
56.321455342 47.0
56.326379198 57.0
56.331303054 58.0
56.336226910 45.0
56.341150766 61.0
56.346074622 51.0
56.350998478 51.0
56.355922334 60.0
56.360846190 49.0
56.365770046 43.0
56.370693902 94.0
56.375617758 43.0
56.380541614 52.0
56.385465470 57.0
56.390389326 48.0
56.395313182 60.0
56.400237038 48.0
56.405160894 69.0
56.410084750 75.0
56.415008606 52.0
56.419932462 60.0
56.424856318 43.0
56.429780174 55.0
56.434704030 63.0
56.439627886 52.0
56.444551742 67.0
56.449475598 58.0
56.454399454 53.0
56.459323310 56.0
56.464247166 41.0
56.469171022 59.0
56.474094878 64.0
56.479018734 40.0
56.483942590 59.0
56.488866446 50.0
56.493790302 52.0
56.498714158 43.0
56.503638014 51.0
56.508561870 57.0
56.513485726 58.0
56.518409582 60.0
56.523333438 53.0
56.528257294 52.0
56.533181150 51.0
56.538105006 59.0
56.543028862 53.0
56.547952718 55.0
56.552876574 47.0
56.557800430 57.0
56.562724286 49.0
56.567648142 64.0
56.572571998 50.0
56.577495854 54.0
56.582419710 48.0
56.587343566 43.0
56.592267422 48.0
56.597191278 62.0
56.602115134 58.0
56.607038990 62.0
56.611962846 64.0
56.616886702 58.0
56.621810558 66.0
56.626734414 60.0
56.631658270 51.0
56.636582126 45.0
56.641505982 58.0
56.646429838 63.0
56.651353694 49.0
56.656277550 56.0
56.661201406 45.0
56.666125262 61.0
56.671049119 52.0
56.675972975 60.0
56.680896831 69.0
56.685820687 66.0
56.690744543 48.0
56.695668399 62.0
56.700592255 42.0
56.705516111 60.0
56.710439967 59.0
56.715363823 61.0
56.720287679 50.0
56.725211535 40.0
56.730135391 50.0
56.735059247 54.0
56.739983103 60.0
56.744906959 70.0
56.749830815 64.0
56.754754671 59.0
56.759678527 46.0
56.764602383 52.0
56.769526239 52.0
56.774450095 65.0
56.779373951 56.0
56.784297807 51.0
56.789221663 63.0
56.794145519 59.0
56.799069375 46.0
56.803993231 58.0
56.808917087 65.0
56.813840943 63.0
56.818764799 57.0
56.823688655 62.0
56.828612511 61.0
56.833536367 51.0
56.838460223 49.0
56.843384079 49.0
56.848307935 54.0
56.853231791 58.0
56.858155647 48.0
56.863079503 67.0
56.868003359 57.0
56.872927215 58.0
56.877851071 56.0
56.882774927 57.0
56.887698783 48.0
56.892622639 52.0
56.897546495 47.0
56.902470351 60.0
56.907394207 68.0
56.912318063 54.0
56.917241919 59.0
56.922165775 59.0
56.927089631 44.0
56.932013487 53.0
56.936937343 51.0
56.941861199 62.0
56.946785055 67.0
56.951708911 47.0
56.956632767 49.0
56.961556623 59.0
56.966480479 50.0
56.971404335 60.0
56.976328191 62.0
56.981252047 44.0
56.986175903 56.0
56.991099759 67.0
56.996023615 63.0
57.000947471 45.0
57.005871327 58.0
57.010795183 54.0
57.015719039 60.0
57.020642895 57.0
57.025566751 62.0
57.030490607 50.0
57.035414463 53.0
57.040338320 45.0
57.045262176 57.0
57.050186032 62.0
57.055109888 60.0
57.060033744 47.0
57.064957600 65.0
57.069881456 50.0
57.074805312 65.0
57.079729168 51.0
57.084653024 63.0
57.089576880 49.0
57.094500736 59.0
57.099424592 54.0
57.104348448 61.0
57.109272304 73.0
57.114196160 69.0
57.119120016 61.0
57.124043872 54.0
57.128967728 47.0
57.133891584 55.0
57.138815440 56.0
57.143739296 51.0
57.148663152 64.0
57.153587008 57.0
57.158510864 60.0
57.163434720 53.0
57.168358576 42.0
57.173282432 59.0
57.178206288 64.0
57.183130144 65.0
57.188054000 48.0
57.192977856 52.0
57.197901712 52.0
57.202825568 59.0
57.207749424 51.0
57.212673280 48.0
57.217597136 55.0
57.222520992 52.0
57.227444848 66.0
57.232368704 61.0
57.237292560 58.0
57.242216416 52.0
57.247140272 74.0
57.252064128 75.0
57.256987984 44.0
57.261911840 67.0
57.266835696 63.0
57.271759552 60.0
57.276683408 53.0
57.281607264 46.0
57.286531120 64.0
57.291454976 69.0
57.296378832 63.0
57.301302688 46.0
57.306226544 54.0
57.311150400 56.0
57.316074256 54.0
57.320998112 46.0
57.325921968 59.0
57.330845824 50.0
57.335769680 62.0
57.340693536 61.0
57.345617392 67.0
57.350541248 58.0
57.355465104 46.0
57.360388960 65.0
57.365312816 54.0
57.370236672 45.0
57.375160528 57.0
57.380084384 56.0
57.385008240 51.0
57.389932096 56.0
57.394855952 53.0
57.399779808 54.0
57.404703664 65.0
57.409627521 50.0
57.414551377 63.0
57.419475233 75.0
57.424399089 64.0
57.429322945 55.0
57.434246801 48.0
57.439170657 71.0
57.444094513 64.0
57.449018369 49.0
57.453942225 59.0
57.458866081 53.0
57.463789937 62.0
57.468713793 56.0
57.473637649 53.0
57.478561505 59.0
57.483485361 60.0
57.488409217 58.0
57.493333073 57.0
57.498256929 64.0
57.503180785 53.0
57.508104641 76.0
57.513028497 61.0
57.517952353 58.0
57.522876209 64.0
57.527800065 47.0
57.532723921 56.0
57.537647777 61.0
57.542571633 44.0
57.547495489 62.0
57.552419345 57.0
57.557343201 57.0
57.562267057 67.0
57.567190913 52.0
57.572114769 65.0
57.577038625 47.0
57.581962481 50.0
57.586886337 61.0
57.591810193 73.0
57.596734049 62.0
57.601657905 57.0
57.606581761 74.0
57.611505617 59.0
57.616429473 64.0
57.621353329 65.0
57.626277185 59.0
57.631201041 49.0
57.636124897 56.0
57.641048753 52.0
57.645972609 65.0
57.650896465 66.0
57.655820321 48.0
57.660744177 67.0
57.665668033 70.0
57.670591889 65.0
57.675515745 49.0
57.680439601 55.0
57.685363457 63.0
57.690287313 64.0
57.695211169 71.0
57.700135025 54.0
57.705058881 53.0
57.709982737 64.0
57.714906593 52.0
57.719830449 54.0
57.724754305 61.0
57.729678161 63.0
57.734602017 61.0
57.739525873 75.0
57.744449729 77.0
57.749373585 60.0
57.754297441 55.0
57.759221297 59.0
57.764145153 67.0
57.769069009 85.0
57.773992865 74.0
57.778916721 57.0
57.783840578 55.0
57.788764434 76.0
57.793688290 62.0
57.798612146 86.0
57.803536002 69.0
57.808459858 45.0
57.813383714 72.0
57.818307570 73.0
57.823231426 61.0
57.828155282 67.0
57.833079138 67.0
57.838002994 62.0
57.842926850 55.0
57.847850706 74.0
57.852774562 51.0
57.857698418 51.0
57.862622274 63.0
57.867546130 77.0
57.872469986 73.0
57.877393842 78.0
57.882317698 64.0
57.887241554 69.0
57.892165410 81.0
57.897089266 64.0
57.902013122 63.0
57.906936978 67.0
57.911860834 49.0
57.916784690 55.0
57.921708546 55.0
57.926632402 69.0
57.931556258 54.0
57.936480114 66.0
57.941403970 59.0
57.946327826 57.0
57.951251682 65.0
57.956175538 64.0
57.961099394 62.0
57.966023250 66.0
57.970947106 61.0
57.975870962 56.0
57.980794818 66.0
57.985718674 58.0
57.990642530 58.0
57.995566386 56.0
58.000490242 57.0
58.005414098 52.0
58.010337954 65.0
58.015261810 84.0
58.020185666 57.0
58.025109522 63.0
58.030033378 73.0
58.034957234 51.0
58.039881090 71.0
58.044804946 54.0
58.049728802 63.0
58.054652658 71.0
58.059576514 50.0
58.064500370 62.0
58.069424226 62.0
58.074348082 59.0
58.079271938 53.0
58.084195794 58.0
58.089119650 61.0
58.094043506 58.0
58.098967362 64.0
58.103891218 76.0
58.108815074 64.0
58.113738930 59.0
58.118662786 59.0
58.123586642 65.0
58.128510498 48.0
58.133434354 50.0
58.138358210 60.0
58.143282066 57.0
58.148205922 50.0
58.153129779 57.0
58.158053635 58.0
58.162977491 57.0
58.167901347 57.0
58.172825203 50.0
58.177749059 56.0
58.182672915 47.0
58.187596771 66.0
58.192520627 60.0
58.197444483 45.0
58.202368339 55.0
58.207292195 52.0
58.212216051 50.0
58.217139907 54.0
58.222063763 68.0
58.226987619 55.0
58.231911475 55.0
58.236835331 47.0
58.241759187 65.0
58.246683043 70.0
58.251606899 58.0
58.256530755 57.0
58.261454611 65.0
58.266378467 57.0
58.271302323 54.0
58.276226179 56.0
58.281150035 55.0
58.286073891 49.0
58.290997747 48.0
58.295921603 69.0
58.300845459 44.0
58.305769315 53.0
58.310693171 50.0
58.315617027 52.0
58.320540883 63.0
58.325464739 56.0
58.330388595 58.0
58.335312451 55.0
58.340236307 56.0
58.345160163 52.0
58.350084019 62.0
58.355007875 57.0
58.359931731 59.0
58.364855587 61.0
58.369779443 60.0
58.374703299 55.0
58.379627155 49.0
58.384551011 62.0
58.389474867 65.0
58.394398723 50.0
58.399322579 70.0
58.404246435 53.0
58.409170291 62.0
58.414094147 53.0
58.419018003 52.0
58.423941859 52.0
58.428865715 44.0
58.433789571 49.0
58.438713427 47.0
58.443637283 54.0
58.448561139 69.0
58.453484995 52.0
58.458408851 50.0
58.463332707 49.0
58.468256563 45.0
58.473180419 69.0
58.478104275 60.0
58.483028131 47.0
58.487951987 60.0
58.492875843 44.0
58.497799699 48.0
58.502723555 52.0
58.507647411 65.0
58.512571267 53.0
58.517495123 64.0
58.522418980 53.0
58.527342836 59.0
58.532266692 56.0
58.537190548 53.0
58.542114404 65.0
58.547038260 69.0
58.551962116 49.0
58.556885972 63.0
58.561809828 55.0
58.566733684 62.0
58.571657540 47.0
58.576581396 46.0
58.581505252 35.0
58.586429108 48.0
58.591352964 56.0
58.596276820 55.0
58.601200676 52.0
58.606124532 51.0
58.611048388 67.0
58.615972244 53.0
58.620896100 48.0
58.625819956 64.0
58.630743812 62.0
58.635667668 53.0
58.640591524 57.0
58.645515380 60.0
58.650439236 66.0
58.655363092 58.0
58.660286948 60.0
58.665210804 64.0
58.670134660 50.0
58.675058516 42.0
58.679982372 52.0
58.684906228 51.0
58.689830084 61.0
58.694753940 57.0
58.699677796 52.0
58.704601652 47.0
58.709525508 56.0
58.714449364 65.0
58.719373220 55.0
58.724297076 55.0
58.729220932 62.0
58.734144788 48.0
58.739068644 59.0
58.743992500 50.0
58.748916356 58.0
58.753840212 43.0
58.758764068 59.0
58.763687924 48.0
58.768611780 53.0
58.773535636 59.0
58.778459492 57.0
58.783383348 56.0
58.788307204 60.0
58.793231060 55.0
58.798154916 63.0
58.803078772 45.0
58.808002628 53.0
58.812926484 54.0
58.817850340 40.0
58.822774196 60.0
58.827698052 57.0
58.832621908 71.0
58.837545764 53.0
58.842469620 52.0
58.847393476 57.0
58.852317332 57.0
58.857241188 63.0
58.862165044 65.0
58.867088900 48.0
58.872012756 57.0
58.876936612 45.0
58.881860468 62.0
58.886784324 72.0
58.891708181 46.0
58.896632037 64.0
58.901555893 47.0
58.906479749 56.0
58.911403605 54.0
58.916327461 55.0
58.921251317 58.0
58.926175173 57.0
58.931099029 70.0
58.936022885 66.0
58.940946741 63.0
58.945870597 56.0
58.950794453 46.0
58.955718309 59.0
58.960642165 59.0
58.965566021 55.0
58.970489877 65.0
58.975413733 52.0
58.980337589 59.0
58.985261445 58.0
58.990185301 60.0
58.995109157 59.0
59.000033013 49.0
59.004956869 59.0
59.009880725 75.0
59.014804581 62.0
59.019728437 60.0
59.024652293 46.0
59.029576149 59.0
59.034500005 60.0
59.039423861 60.0
59.044347717 74.0
59.049271573 64.0
59.054195429 59.0
59.059119285 58.0
59.064043141 60.0
59.068966997 52.0
59.073890853 43.0
59.078814709 55.0
59.083738565 56.0
59.088662421 61.0
59.093586277 59.0
59.098510133 60.0
59.103433989 52.0
59.108357845 41.0
59.113281701 57.0
59.118205557 67.0
59.123129413 51.0
59.128053269 65.0
59.132977125 62.0
59.137900981 61.0
59.142824837 62.0
59.147748693 58.0
59.152672549 66.0
59.157596405 54.0
59.162520261 69.0
59.167444117 64.0
59.172367973 59.0
59.177291829 50.0
59.182215685 55.0
59.187139541 46.0
59.192063397 73.0
59.196987253 40.0
59.201911109 61.0
59.206834965 64.0
59.211758821 51.0
59.216682677 53.0
59.221606533 67.0
59.226530389 58.0
59.231454245 58.0
59.236378101 57.0
59.241301957 57.0
59.246225813 52.0
59.251149669 64.0
59.256073525 51.0
59.260997382 65.0
59.265921238 49.0
59.270845094 59.0
59.275768950 51.0
59.280692806 51.0
59.285616662 51.0
59.290540518 58.0
59.295464374 64.0
59.300388230 60.0
59.305312086 59.0
59.310235942 66.0
59.315159798 52.0
59.320083654 60.0
59.325007510 48.0
59.329931366 37.0
59.334855222 50.0
59.339779078 78.0
59.344702934 54.0
59.349626790 67.0
59.354550646 58.0
59.359474502 66.0
59.364398358 43.0
59.369322214 47.0
59.374246070 54.0
59.379169926 57.0
59.384093782 42.0
59.389017638 43.0
59.393941494 48.0
59.398865350 60.0
59.403789206 51.0
59.408713062 57.0
59.413636918 56.0
59.418560774 53.0
59.423484630 70.0
59.428408486 65.0
59.433332342 51.0
59.438256198 58.0
59.443180054 40.0
59.448103910 53.0
59.453027766 68.0
59.457951622 64.0
59.462875478 56.0
59.467799334 60.0
59.472723190 54.0
59.477647046 60.0
59.482570902 57.0
59.487494758 71.0
59.492418614 60.0
59.497342470 62.0
59.502266326 54.0
59.507190182 57.0
59.512114038 63.0
59.517037894 47.0
59.521961750 80.0
59.526885606 59.0
59.531809462 72.0
59.536733318 49.0
59.541657174 67.0
59.546581030 65.0
59.551504886 68.0
59.556428742 57.0
59.561352598 57.0
59.566276454 64.0
59.571200310 46.0
59.576124166 53.0
59.581048022 51.0
59.585971878 57.0
59.590895734 68.0
59.595819590 54.0
59.600743446 64.0
59.605667302 56.0
59.610591158 59.0
59.615515014 64.0
59.620438870 56.0
59.625362726 70.0
59.630286582 56.0
59.635210439 54.0
59.640134295 59.0
59.645058151 52.0
59.649982007 56.0
59.654905863 57.0
59.659829719 59.0
59.664753575 55.0
59.669677431 50.0
59.674601287 62.0
59.679525143 52.0
59.684448999 54.0
59.689372855 68.0
59.694296711 66.0
59.699220567 41.0
59.704144423 64.0
59.709068279 66.0
59.713992135 51.0
59.718915991 50.0
59.723839847 60.0
59.728763703 49.0
59.733687559 68.0
59.738611415 53.0
59.743535271 50.0
59.748459127 56.0
59.753382983 74.0
59.758306839 59.0
59.763230695 68.0
59.768154551 54.0
59.773078407 55.0
59.778002263 66.0
59.782926119 55.0
59.787849975 58.0
59.792773831 42.0
59.797697687 37.0
59.802621543 57.0
59.807545399 81.0
59.812469255 74.0
59.817393111 50.0
59.822316967 57.0
59.827240823 53.0
59.832164679 55.0
59.837088535 68.0
59.842012391 71.0
59.846936247 71.0
59.851860103 60.0
59.856783959 53.0
59.861707815 52.0
59.866631671 58.0
59.871555527 62.0
59.876479383 49.0
59.881403239 59.0
59.886327095 54.0
59.891250951 65.0
59.896174807 62.0
59.901098663 62.0
59.906022519 59.0
59.910946375 39.0
59.915870231 51.0
59.920794087 63.0
59.925717943 46.0
59.930641799 63.0
59.935565655 54.0
59.940489511 52.0
59.945413367 66.0
59.950337223 74.0
59.955261079 68.0
59.960184935 66.0
59.965108791 66.0
59.970032647 56.0
59.974956503 71.0
59.979880359 62.0
59.984804215 59.0
59.989728071 61.0
59.994651927 57.0
59.999575783 54.0
60.004499640 52.0
60.009423496 67.0
60.014347352 44.0
60.019271208 66.0
60.024195064 56.0
60.029118920 67.0
60.034042776 58.0
60.038966632 55.0
60.043890488 64.0
60.048814344 63.0
60.053738200 65.0
60.058662056 47.0
60.063585912 59.0
60.068509768 63.0
60.073433624 59.0
60.078357480 53.0
60.083281336 58.0
60.088205192 51.0
60.093129048 59.0
60.098052904 54.0
60.102976760 57.0
60.107900616 69.0
60.112824472 63.0
60.117748328 53.0
60.122672184 61.0
60.127596040 59.0
60.132519896 68.0
60.137443752 48.0
60.142367608 68.0
60.147291464 58.0
60.152215320 64.0
60.157139176 71.0
60.162063032 66.0
60.166986888 61.0
60.171910744 74.0
60.176834600 56.0
60.181758456 68.0
60.186682312 59.0
60.191606168 52.0
60.196530024 55.0
60.201453880 62.0
60.206377736 52.0
60.211301592 52.0
60.216225448 53.0
60.221149304 56.0
60.226073160 56.0
60.230997016 61.0
60.235920872 63.0
60.240844728 59.0
60.245768584 53.0
60.250692440 61.0
60.255616296 73.0
60.260540152 61.0
60.265464008 58.0
60.270387864 62.0
60.275311720 64.0
60.280235576 58.0
60.285159432 59.0
60.290083288 61.0
60.295007144 46.0
60.299931000 68.0
60.304854856 59.0
60.309778712 59.0
60.314702568 67.0
60.319626424 66.0
60.324550280 73.0
60.329474136 56.0
60.334397992 68.0
60.339321848 64.0
60.344245704 60.0
60.349169560 62.0
60.354093416 66.0
60.359017272 64.0
60.363941128 82.0
60.368864984 65.0
60.373788841 57.0
60.378712697 63.0
60.383636553 66.0
60.388560409 66.0
60.393484265 46.0
60.398408121 55.0
60.403331977 84.0
60.408255833 67.0
60.413179689 66.0
60.418103545 65.0
60.423027401 76.0
60.427951257 65.0
60.432875113 77.0
60.437798969 84.0
60.442722825 62.0
60.447646681 59.0
60.452570537 58.0
60.457494393 64.0
60.462418249 61.0
60.467342105 59.0
60.472265961 55.0
60.477189817 58.0
60.482113673 59.0
60.487037529 74.0
60.491961385 54.0
60.496885241 70.0
60.501809097 71.0
60.506732953 53.0
60.511656809 64.0
60.516580665 55.0
60.521504521 58.0
60.526428377 66.0
60.531352233 62.0
60.536276089 73.0
60.541199945 64.0
60.546123801 59.0
60.551047657 51.0
60.555971513 86.0
60.560895369 62.0
60.565819225 63.0
60.570743081 78.0
60.575666937 59.0
60.580590793 62.0
60.585514649 61.0
60.590438505 59.0
60.595362361 63.0
60.600286217 65.0
60.605210073 54.0
60.610133929 79.0
60.615057785 57.0
60.619981641 71.0
60.624905497 71.0
60.629829353 73.0
60.634753209 62.0
60.639677065 77.0
60.644600921 64.0
60.649524777 93.0
60.654448633 76.0
60.659372489 68.0
60.664296345 72.0
60.669220201 67.0
60.674144057 88.0
60.679067913 60.0
60.683991769 78.0
60.688915625 82.0
60.693839481 70.0
60.698763337 71.0
60.703687193 84.0
60.708611049 72.0
60.713534905 82.0
60.718458761 85.0
60.723382617 86.0
60.728306473 104.0
60.733230329 92.0
60.738154185 99.0
60.743078042 85.0
60.748001898 115.0
60.752925754 114.0
60.757849610 116.0
60.762773466 144.0
60.767697322 157.0
60.772621178 150.0
60.777545034 161.0
60.782468890 264.0
60.787392746 270.0
60.792316602 290.0
60.797240458 367.0
60.802164314 414.0
60.807088170 486.0
60.812012026 546.0
60.816935882 622.0
60.821859738 663.0
60.826783594 723.0
60.831707450 747.0
60.836631306 702.0
60.841555162 719.0
60.846479018 695.0
60.851402874 600.0
60.856326730 476.0
60.861250586 431.0
60.866174442 393.0
60.871098298 348.0
60.876022154 326.0
60.880946010 334.0
60.885869866 313.0
60.890793722 291.0
60.895717578 338.0
60.900641434 281.0
60.905565290 308.0
60.910489146 304.0
60.915413002 281.0
60.920336858 293.0
60.925260714 265.0
60.930184570 220.0
60.935108426 207.0
60.940032282 178.0
60.944956138 163.0
60.949879994 154.0
60.954803850 138.0
60.959727706 115.0
60.964651562 125.0
60.969575418 93.0
60.974499274 109.0
60.979423130 94.0
60.984346986 103.0
60.989270842 107.0
60.994194698 107.0
60.999118554 89.0
61.004042410 109.0
61.008966266 102.0
61.013890122 74.0
61.018813978 94.0
61.023737834 84.0
61.028661690 77.0
61.033585546 70.0
61.038509402 67.0
61.043433258 65.0
61.048357114 70.0
61.053280970 73.0
61.058204826 87.0
61.063128682 79.0
61.068052538 72.0
61.072976394 88.0
61.077900250 71.0
61.082824106 71.0
61.087747962 88.0
61.092671818 81.0
61.097595674 69.0
61.102519530 78.0
61.107443386 67.0
61.112367243 80.0
61.117291099 78.0
61.122214955 89.0
61.127138811 86.0
61.132062667 77.0
61.136986523 79.0
61.141910379 66.0
61.146834235 75.0
61.151758091 81.0
61.156681947 76.0
61.161605803 71.0
61.166529659 64.0
61.171453515 77.0
61.176377371 80.0
61.181301227 80.0
61.186225083 57.0
61.191148939 58.0
61.196072795 68.0
61.200996651 64.0
61.205920507 72.0
61.210844363 58.0
61.215768219 73.0
61.220692075 71.0
61.225615931 62.0
61.230539787 78.0
61.235463643 48.0
61.240387499 71.0
61.245311355 57.0
61.250235211 79.0
61.255159067 61.0
61.260082923 62.0
61.265006779 46.0
61.269930635 54.0
61.274854491 60.0
61.279778347 52.0
61.284702203 65.0
61.289626059 74.0
61.294549915 74.0
61.299473771 47.0
61.304397627 56.0
61.309321483 80.0
61.314245339 74.0
61.319169195 76.0
61.324093051 59.0
61.329016907 58.0
61.333940763 81.0
61.338864619 59.0
61.343788475 60.0
61.348712331 61.0
61.353636187 62.0
61.358560043 77.0
61.363483899 63.0
61.368407755 72.0
61.373331611 81.0
61.378255467 69.0
61.383179323 73.0
61.388103179 59.0
61.393027035 55.0
61.397950891 62.0
61.402874747 72.0
61.407798603 60.0
61.412722459 62.0
61.417646315 60.0
61.422570171 69.0
61.427494027 64.0
61.432417883 56.0
61.437341739 62.0
61.442265595 77.0
61.447189451 60.0
61.452113307 55.0
61.457037163 58.0
61.461961019 61.0
61.466884875 72.0
61.471808731 60.0
61.476732587 57.0
61.481656443 69.0
61.486580300 66.0
61.491504156 61.0
61.496428012 71.0
61.501351868 63.0
61.506275724 60.0
61.511199580 74.0
61.516123436 75.0
61.521047292 56.0
61.525971148 62.0
61.530895004 72.0
61.535818860 67.0
61.540742716 50.0
61.545666572 68.0
61.550590428 63.0
61.555514284 55.0
61.560438140 55.0
61.565361996 69.0
61.570285852 53.0
61.575209708 51.0
61.580133564 62.0
61.585057420 67.0
61.589981276 53.0
61.594905132 71.0
61.599828988 73.0
61.604752844 56.0
61.609676700 70.0
61.614600556 61.0
61.619524412 73.0
61.624448268 60.0
61.629372124 54.0
61.634295980 63.0
61.639219836 76.0
61.644143692 70.0
61.649067548 72.0
61.653991404 61.0
61.658915260 68.0
61.663839116 61.0
61.668762972 55.0
61.673686828 60.0
61.678610684 72.0
61.683534540 58.0
61.688458396 72.0
61.693382252 81.0
61.698306108 60.0
61.703229964 64.0
61.708153820 57.0
61.713077676 60.0
61.718001532 66.0
61.722925388 71.0
61.727849244 61.0
61.732773100 82.0
61.737696956 70.0
61.742620812 70.0
61.747544668 47.0
61.752468524 57.0
61.757392380 60.0
61.762316236 73.0
61.767240092 64.0
61.772163948 58.0
61.777087804 74.0
61.782011660 65.0
61.786935516 72.0
61.791859372 85.0
61.796783228 49.0
61.801707084 54.0
61.806630940 58.0
61.811554796 59.0
61.816478652 64.0
61.821402508 68.0
61.826326364 72.0
61.831250220 58.0
61.836174076 71.0
61.841097932 77.0
61.846021788 59.0
61.850945644 66.0
61.855869501 66.0
61.860793357 65.0
61.865717213 57.0
61.870641069 72.0
61.875564925 66.0
61.880488781 62.0
61.885412637 59.0
61.890336493 74.0
61.895260349 67.0
61.900184205 60.0
61.905108061 76.0
61.910031917 65.0
61.914955773 63.0
61.919879629 67.0
61.924803485 60.0
61.929727341 88.0
61.934651197 53.0
61.939575053 61.0
61.944498909 64.0
61.949422765 60.0
61.954346621 70.0
61.959270477 74.0
61.964194333 62.0
61.969118189 61.0
61.974042045 58.0
61.978965901 62.0
61.983889757 56.0
61.988813613 68.0
61.993737469 56.0
61.998661325 69.0
62.003585181 60.0
62.008509037 71.0
62.013432893 62.0
62.018356749 64.0
62.023280605 71.0
62.028204461 57.0
62.033128317 72.0
62.038052173 80.0
62.042976029 73.0
62.047899885 65.0
62.052823741 50.0
62.057747597 67.0
62.062671453 61.0
62.067595309 76.0
62.072519165 74.0
62.077443021 53.0
62.082366877 68.0
62.087290733 60.0
62.092214589 77.0
62.097138445 59.0
62.102062301 75.0
62.106986157 70.0
62.111910013 60.0
62.116833869 73.0
62.121757725 83.0
62.126681581 85.0
62.131605437 62.0
62.136529293 67.0
62.141453149 68.0
62.146377005 63.0
62.151300861 72.0
62.156224717 67.0
62.161148573 67.0
62.166072429 61.0
62.170996285 51.0
62.175920141 85.0
62.180843997 74.0
62.185767853 79.0
62.190691709 64.0
62.195615565 63.0
62.200539421 69.0
62.205463277 69.0
62.210387133 71.0
62.215310989 64.0
62.220234845 64.0
62.225158702 65.0
62.230082558 52.0
62.235006414 64.0
62.239930270 70.0
62.244854126 69.0
62.249777982 48.0
62.254701838 64.0
62.259625694 56.0
62.264549550 71.0
62.269473406 76.0
62.274397262 57.0
62.279321118 68.0
62.284244974 56.0
62.289168830 69.0
62.294092686 62.0
62.299016542 82.0
62.303940398 65.0
62.308864254 87.0
62.313788110 59.0
62.318711966 90.0
62.323635822 57.0
62.328559678 55.0
62.333483534 62.0
62.338407390 66.0
62.343331246 64.0
62.348255102 57.0
62.353178958 68.0
62.358102814 56.0
62.363026670 65.0
62.367950526 79.0
62.372874382 68.0
62.377798238 69.0
62.382722094 68.0
62.387645950 69.0
62.392569806 78.0
62.397493662 65.0
62.402417518 58.0
62.407341374 62.0
62.412265230 83.0
62.417189086 62.0
62.422112942 88.0
62.427036798 62.0
62.431960654 78.0
62.436884510 67.0
62.441808366 82.0
62.446732222 68.0
62.451656078 71.0
62.456579934 72.0
62.461503790 77.0
62.466427646 67.0
62.471351502 51.0
62.476275358 72.0
62.481199214 71.0
62.486123070 54.0
62.491046926 63.0
62.495970782 64.0
62.500894638 71.0
62.505818494 59.0
62.510742350 79.0
62.515666206 63.0
62.520590062 69.0
62.525513918 77.0
62.530437774 73.0
62.535361630 53.0
62.540285486 43.0
62.545209342 71.0
62.550133198 60.0
62.555057054 68.0
62.559980910 80.0
62.564904766 68.0
62.569828622 68.0
62.574752478 75.0
62.579676334 62.0
62.584600190 70.0
62.589524046 74.0
62.594447903 57.0
62.599371759 60.0
62.604295615 74.0
62.609219471 75.0
62.614143327 61.0
62.619067183 64.0
62.623991039 58.0
62.628914895 66.0
62.633838751 75.0
62.638762607 66.0
62.643686463 85.0
62.648610319 83.0
62.653534175 77.0
62.658458031 84.0
62.663381887 59.0
62.668305743 77.0
62.673229599 60.0
62.678153455 70.0
62.683077311 76.0
62.688001167 57.0
62.692925023 73.0
62.697848879 57.0
62.702772735 69.0
62.707696591 83.0
62.712620447 72.0
62.717544303 90.0
62.722468159 77.0
62.727392015 65.0
62.732315871 68.0
62.737239727 57.0
62.742163583 60.0
62.747087439 62.0
62.752011295 75.0
62.756935151 49.0
62.761859007 79.0
62.766782863 67.0
62.771706719 73.0
62.776630575 70.0
62.781554431 88.0
62.786478287 71.0
62.791402143 66.0
62.796325999 68.0
62.801249855 69.0
62.806173711 65.0
62.811097567 65.0
62.816021423 75.0
62.820945279 66.0
62.825869135 75.0
62.830792991 73.0
62.835716847 67.0
62.840640703 60.0
62.845564559 79.0
62.850488415 86.0
62.855412271 85.0
62.860336127 73.0
62.865259983 78.0
62.870183839 69.0
62.875107695 83.0
62.880031551 80.0
62.884955407 82.0
62.889879263 70.0
62.894803119 77.0
62.899726975 77.0
62.904650831 74.0
62.909574687 84.0
62.914498543 58.0
62.919422399 77.0
62.924346255 81.0
62.929270111 69.0
62.934193967 73.0
62.939117823 71.0
62.944041679 95.0
62.948965535 60.0
62.953889391 65.0
62.958813247 76.0
62.963737104 51.0
62.968660960 80.0
62.973584816 64.0
62.978508672 67.0
62.983432528 83.0
62.988356384 74.0
62.993280240 82.0
62.998204096 61.0
63.003127952 66.0
63.008051808 78.0
63.012975664 69.0
63.017899520 84.0
63.022823376 75.0
63.027747232 65.0
63.032671088 83.0
63.037594944 93.0
63.042518800 76.0
63.047442656 69.0
63.052366512 68.0
63.057290368 78.0
63.062214224 88.0
63.067138080 73.0
63.072061936 65.0
63.076985792 79.0
63.081909648 81.0
63.086833504 85.0
63.091757360 68.0
63.096681216 74.0
63.101605072 78.0
63.106528928 69.0
63.111452784 78.0
63.116376640 66.0
63.121300496 78.0
63.126224352 73.0
63.131148208 77.0
63.136072064 72.0
63.140995920 72.0
63.145919776 84.0
63.150843632 83.0
63.155767488 78.0
63.160691344 77.0
63.165615200 77.0
63.170539056 69.0
63.175462912 82.0
63.180386768 71.0
63.185310624 75.0
63.190234480 76.0
63.195158336 76.0
63.200082192 84.0
63.205006048 75.0
63.209929904 76.0
63.214853760 85.0
63.219777616 70.0
63.224701472 68.0
63.229625328 68.0
63.234549184 70.0
63.239473040 74.0
63.244396896 85.0
63.249320752 78.0
63.254244608 96.0
63.259168464 74.0
63.264092320 87.0
63.269016176 76.0
63.273940032 65.0
63.278863888 77.0
63.283787744 72.0
63.288711600 67.0
63.293635456 85.0
63.298559312 66.0
63.303483168 86.0
63.308407024 68.0
63.313330880 76.0
63.318254736 75.0
63.323178592 71.0
63.328102448 96.0
63.333026304 83.0
63.337950161 77.0
63.342874017 82.0
63.347797873 67.0
63.352721729 97.0
63.357645585 89.0
63.362569441 83.0
63.367493297 76.0
63.372417153 72.0
63.377341009 73.0
63.382264865 76.0
63.387188721 80.0
63.392112577 69.0
63.397036433 81.0
63.401960289 99.0
63.406884145 98.0
63.411808001 75.0
63.416731857 85.0
63.421655713 70.0
63.426579569 78.0
63.431503425 88.0
63.436427281 70.0
63.441351137 76.0
63.446274993 82.0
63.451198849 69.0
63.456122705 89.0
63.461046561 77.0
63.465970417 99.0
63.470894273 76.0
63.475818129 75.0
63.480741985 108.0
63.485665841 80.0
63.490589697 90.0
63.495513553 78.0
63.500437409 93.0
63.505361265 84.0
63.510285121 89.0
63.515208977 93.0
63.520132833 84.0
63.525056689 94.0
63.529980545 97.0
63.534904401 86.0
63.539828257 81.0
63.544752113 95.0
63.549675969 81.0
63.554599825 112.0
63.559523681 97.0
63.564447537 96.0
63.569371393 92.0
63.574295249 87.0
63.579219105 101.0
63.584142961 94.0
63.589066817 86.0
63.593990673 102.0
63.598914529 83.0
63.603838385 91.0
63.608762241 95.0
63.613686097 88.0
63.618609953 93.0
63.623533809 93.0
63.628457665 81.0
63.633381521 96.0
63.638305377 82.0
63.643229233 90.0
63.648153089 100.0
63.653076945 89.0
63.658000801 107.0
63.662924657 99.0
63.667848513 106.0
63.672772369 94.0
63.677696225 115.0
63.682620081 112.0
63.687543937 105.0
63.692467793 89.0
63.697391649 107.0
63.702315505 107.0
63.707239362 99.0
63.712163218 117.0
63.717087074 92.0
63.722010930 90.0
63.726934786 88.0
63.731858642 97.0
63.736782498 109.0
63.741706354 100.0
63.746630210 101.0
63.751554066 98.0
63.756477922 96.0
63.761401778 112.0
63.766325634 115.0
63.771249490 114.0
63.776173346 124.0
63.781097202 111.0
63.786021058 93.0
63.790944914 91.0
63.795868770 111.0
63.800792626 105.0
63.805716482 102.0
63.810640338 105.0
63.815564194 114.0
63.820488050 94.0
63.825411906 108.0
63.830335762 103.0
63.835259618 81.0
63.840183474 103.0
63.845107330 101.0
63.850031186 126.0
63.854955042 111.0
63.859878898 119.0
63.864802754 116.0
63.869726610 119.0
63.874650466 109.0
63.879574322 111.0
63.884498178 116.0
63.889422034 118.0
63.894345890 116.0
63.899269746 118.0
63.904193602 127.0
63.909117458 132.0
63.914041314 113.0
63.918965170 160.0
63.923889026 133.0
63.928812882 111.0
63.933736738 116.0
63.938660594 127.0
63.943584450 119.0
63.948508306 124.0
63.953432162 137.0
63.958356018 107.0
63.963279874 135.0
63.968203730 117.0
63.973127586 117.0
63.978051442 134.0
63.982975298 114.0
63.987899154 129.0
63.992823010 131.0
63.997746866 149.0
64.002670722 149.0
64.007594578 127.0
64.012518434 147.0
64.017442290 133.0
64.022366146 155.0
64.027290002 136.0
64.032213858 126.0
64.037137714 151.0
64.042061570 157.0
64.046985426 149.0
64.051909282 131.0
64.056833138 153.0
64.061756994 165.0
64.066680850 125.0
64.071604706 165.0
64.076528563 166.0
64.081452419 158.0
64.086376275 168.0
64.091300131 164.0
64.096223987 163.0
64.101147843 152.0
64.106071699 187.0
64.110995555 175.0
64.115919411 170.0
64.120843267 162.0
64.125767123 212.0
64.130690979 157.0
64.135614835 182.0
64.140538691 181.0
64.145462547 186.0
64.150386403 200.0
64.155310259 193.0
64.160234115 198.0
64.165157971 183.0
64.170081827 205.0
64.175005683 189.0
64.179929539 206.0
64.184853395 211.0
64.189777251 182.0
64.194701107 193.0
64.199624963 190.0
64.204548819 190.0
64.209472675 229.0
64.214396531 213.0
64.219320387 228.0
64.224244243 222.0
64.229168099 228.0
64.234091955 266.0
64.239015811 242.0
64.243939667 267.0
64.248863523 232.0
64.253787379 229.0
64.258711235 248.0
64.263635091 257.0
64.268558947 232.0
64.273482803 228.0
64.278406659 264.0
64.283330515 260.0
64.288254371 283.0
64.293178227 277.0
64.298102083 323.0
64.303025939 308.0
64.307949795 308.0
64.312873651 299.0
64.317797507 316.0
64.322721363 334.0
64.327645219 360.0
64.332569075 363.0
64.337492931 385.0
64.342416787 349.0
64.347340643 376.0
64.352264499 332.0
64.357188355 383.0
64.362112211 422.0
64.367036067 383.0
64.371959923 404.0
64.376883779 419.0
64.381807635 384.0
64.386731491 456.0
64.391655347 424.0
64.396579203 442.0
64.401503059 491.0
64.406426915 471.0
64.411350771 471.0
64.416274627 515.0
64.421198483 504.0
64.426122339 557.0
64.431046195 513.0
64.435970051 544.0
64.440893907 579.0
64.445817764 589.0
64.450741620 569.0
64.455665476 616.0
64.460589332 648.0
64.465513188 653.0
64.470437044 691.0
64.475360900 677.0
64.480284756 675.0
64.485208612 708.0
64.490132468 777.0
64.495056324 792.0
64.499980180 772.0
64.504904036 813.0
64.509827892 866.0
64.514751748 891.0
64.519675604 941.0
64.524599460 894.0
64.529523316 924.0
64.534447172 1025.0
64.539371028 1019.0
64.544294884 1083.0
64.549218740 1199.0
64.554142596 1163.0
64.559066452 1258.0
64.563990308 1244.0
64.568914164 1267.0
64.573838020 1322.0
64.578761876 1341.0
64.583685732 1394.0
64.588609588 1492.0
64.593533444 1541.0
64.598457300 1629.0
64.603381156 1698.0
64.608305012 1700.0
64.613228868 1780.0
64.618152724 1934.0
64.623076580 1944.0
64.628000436 1924.0
64.632924292 2040.0
64.637848148 2081.0
64.642772004 2142.0
64.647695860 2311.0
64.652619716 2361.0
64.657543572 2336.0
64.662467428 2513.0
64.667391284 2540.0
64.672315140 2590.0
64.677238996 2728.0
64.682162852 2737.0
64.687086708 2758.0
64.692010564 2816.0
64.696934420 2953.0
64.701858276 2953.0
64.706782132 3061.0
64.711705988 3112.0
64.716629844 3149.0
64.721553700 3129.0
64.726477556 3156.0
64.731401412 3119.0
64.736325268 3222.0
64.741249124 3296.0
64.746172980 3144.0
64.751096836 3203.0
64.756020692 3077.0
64.760944548 3155.0
64.765868404 3077.0
64.770792260 2951.0
64.775716116 2911.0
64.780639972 2896.0
64.785563828 2703.0
64.790487684 2750.0
64.795411540 2742.0
64.800335396 2691.0
64.805259252 2625.0
64.810183108 2636.0
64.815106965 2555.0
64.820030821 2557.0
64.824954677 2498.0
64.829878533 2553.0
64.834802389 2435.0
64.839726245 2495.0
64.844650101 2357.0
64.849573957 2347.0
64.854497813 2392.0
64.859421669 2302.0
64.864345525 2257.0
64.869269381 2246.0
64.874193237 2222.0
64.879117093 2138.0
64.884040949 2211.0
64.888964805 2020.0
64.893888661 2090.0
64.898812517 2127.0
64.903736373 2135.0
64.908660229 2049.0
64.913584085 1996.0
64.918507941 2007.0
64.923431797 1936.0
64.928355653 1944.0
64.933279509 1866.0
64.938203365 1828.0
64.943127221 1810.0
64.948051077 1739.0
64.952974933 1670.0
64.957898789 1598.0
64.962822645 1591.0
64.967746501 1445.0
64.972670357 1464.0
64.977594213 1385.0
64.982518069 1381.0
64.987441925 1365.0
64.992365781 1304.0
64.997289637 1162.0
65.002213493 1169.0
65.007137349 1129.0
65.012061205 1039.0
65.016985061 1010.0
65.021908917 1008.0
65.026832773 978.0
65.031756629 872.0
65.036680485 835.0
65.041604341 844.0
65.046528197 837.0
65.051452053 812.0
65.056375909 761.0
65.061299765 726.0
65.066223621 688.0
65.071147477 675.0
65.076071333 641.0
65.080995189 606.0
65.085919045 583.0
65.090842901 604.0
65.095766757 621.0
65.100690613 552.0
65.105614469 529.0
65.110538325 500.0
65.115462181 526.0
65.120386037 491.0
65.125309893 461.0
65.130233749 513.0
65.135157605 456.0
65.140081461 473.0
65.145005317 451.0
65.149929173 433.0
65.154853029 423.0
65.159776885 408.0
65.164700741 397.0
65.169624597 390.0
65.174548453 341.0
65.179472309 367.0
65.184396165 380.0
65.189320022 349.0
65.194243878 324.0
65.199167734 314.0
65.204091590 296.0
65.209015446 324.0
65.213939302 342.0
65.218863158 300.0
65.223787014 293.0
65.228710870 305.0
65.233634726 311.0
65.238558582 287.0
65.243482438 282.0
65.248406294 267.0
65.253330150 262.0
65.258254006 234.0
65.263177862 279.0
65.268101718 236.0
65.273025574 267.0
65.277949430 259.0
65.282873286 229.0
65.287797142 268.0
65.292720998 225.0
65.297644854 219.0
65.302568710 211.0
65.307492566 235.0
65.312416422 196.0
65.317340278 215.0
65.322264134 247.0
65.327187990 211.0
65.332111846 214.0
65.337035702 197.0
65.341959558 180.0
65.346883414 194.0
65.351807270 208.0
65.356731126 227.0
65.361654982 193.0
65.366578838 210.0
65.371502694 177.0
65.376426550 218.0
65.381350406 180.0
65.386274262 181.0
65.391198118 191.0
65.396121974 183.0
65.401045830 165.0
65.405969686 194.0
65.410893542 198.0
65.415817398 171.0
65.420741254 151.0
65.425665110 161.0
65.430588966 180.0
65.435512822 152.0
65.440436678 171.0
65.445360534 171.0
65.450284390 166.0
65.455208246 192.0
65.460132102 141.0
65.465055958 178.0
65.469979814 203.0
65.474903670 158.0
65.479827526 178.0
65.484751382 166.0
65.489675238 178.0
65.494599094 153.0
65.499522950 151.0
65.504446806 153.0
65.509370662 159.0
65.514294518 145.0
65.519218374 149.0
65.524142230 136.0
65.529066086 150.0
65.533989942 129.0
65.538913798 150.0
65.543837654 168.0
65.548761510 142.0
65.553685366 141.0
65.558609223 147.0
65.563533079 148.0
65.568456935 139.0
65.573380791 134.0
65.578304647 145.0
65.583228503 138.0
65.588152359 146.0
65.593076215 130.0
65.598000071 129.0
65.602923927 129.0
65.607847783 152.0
65.612771639 142.0
65.617695495 140.0
65.622619351 157.0
65.627543207 124.0
65.632467063 148.0
65.637390919 134.0
65.642314775 134.0
65.647238631 110.0
65.652162487 135.0
65.657086343 124.0
65.662010199 136.0
65.666934055 110.0
65.671857911 131.0
65.676781767 129.0
65.681705623 110.0
65.686629479 137.0
65.691553335 129.0
65.696477191 130.0
65.701401047 142.0
65.706324903 148.0
65.711248759 106.0
65.716172615 135.0
65.721096471 124.0
65.726020327 130.0
65.730944183 122.0
65.735868039 128.0
65.740791895 120.0
65.745715751 132.0
65.750639607 118.0
65.755563463 127.0
65.760487319 122.0
65.765411175 113.0
65.770335031 120.0
65.775258887 127.0
65.780182743 116.0
65.785106599 132.0
65.790030455 131.0
65.794954311 110.0
65.799878167 122.0
65.804802023 127.0
65.809725879 106.0
65.814649735 115.0
65.819573591 103.0
65.824497447 107.0
65.829421303 112.0
65.834345159 112.0
65.839269015 115.0
65.844192871 110.0
65.849116727 116.0
65.854040583 107.0
65.858964439 108.0
65.863888295 112.0
65.868812151 107.0
65.873736007 107.0
65.878659863 122.0
65.883583719 117.0
65.888507575 104.0
65.893431431 100.0
65.898355287 112.0
65.903279143 115.0
65.908202999 101.0
65.913126855 110.0
65.918050711 110.0
65.922974567 133.0
65.927898424 112.0
65.932822280 113.0
65.937746136 109.0
65.942669992 124.0
65.947593848 98.0
65.952517704 95.0
65.957441560 117.0
65.962365416 122.0
65.967289272 99.0
65.972213128 104.0
65.977136984 116.0
65.982060840 109.0
65.986984696 126.0
65.991908552 141.0
65.996832408 123.0
66.001756264 107.0
66.006680120 116.0
66.011603976 109.0
66.016527832 96.0
66.021451688 106.0
66.026375544 112.0
66.031299400 112.0
66.036223256 119.0
66.041147112 107.0
66.046070968 122.0
66.050994824 113.0
66.055918680 120.0
66.060842536 121.0
66.065766392 110.0
66.070690248 125.0
66.075614104 111.0
66.080537960 115.0
66.085461816 111.0
66.090385672 133.0
66.095309528 127.0
66.100233384 122.0
66.105157240 133.0
66.110081096 112.0
66.115004952 124.0
66.119928808 138.0
66.124852664 124.0
66.129776520 140.0
66.134700376 127.0
66.139624232 108.0
66.144548088 126.0
66.149471944 126.0
66.154395800 105.0
66.159319656 106.0
66.164243512 114.0
66.169167368 125.0
66.174091224 125.0
66.179015080 129.0
66.183938936 125.0
66.188862792 99.0
66.193786648 95.0
66.198710504 127.0
66.203634360 117.0
66.208558216 105.0
66.213482072 125.0
66.218405928 118.0
66.223329784 118.0
66.228253640 126.0
66.233177496 133.0
66.238101352 122.0
66.243025208 129.0
66.247949064 134.0
66.252872920 134.0
66.257796776 118.0
66.262720632 127.0
66.267644488 114.0
66.272568344 119.0
66.277492200 113.0
66.282416056 136.0
66.287339912 140.0
66.292263768 127.0
66.297187625 146.0
66.302111481 129.0
66.307035337 122.0
66.311959193 120.0
66.316883049 120.0
66.321806905 128.0
66.326730761 111.0
66.331654617 112.0
66.336578473 127.0
66.341502329 124.0
66.346426185 128.0
66.351350041 141.0
66.356273897 111.0
66.361197753 108.0
66.366121609 129.0
66.371045465 147.0
66.375969321 144.0
66.380893177 134.0
66.385817033 137.0
66.390740889 114.0
66.395664745 123.0
66.400588601 139.0
66.405512457 134.0
66.410436313 132.0
66.415360169 121.0
66.420284025 118.0
66.425207881 132.0
66.430131737 150.0
66.435055593 129.0
66.439979449 133.0
66.444903305 147.0
66.449827161 129.0
66.454751017 107.0
66.459674873 134.0
66.464598729 135.0
66.469522585 129.0
66.474446441 129.0
66.479370297 123.0
66.484294153 141.0
66.489218009 136.0
66.494141865 142.0
66.499065721 135.0
66.503989577 141.0
66.508913433 138.0
66.513837289 145.0
66.518761145 146.0
66.523685001 127.0
66.528608857 140.0
66.533532713 134.0
66.538456569 138.0
66.543380425 145.0
66.548304281 119.0
66.553228137 151.0
66.558151993 162.0
66.563075849 162.0
66.567999705 136.0
66.572923561 134.0
66.577847417 127.0
66.582771273 143.0
66.587695129 159.0
66.592618985 152.0
66.597542841 128.0
66.602466697 160.0
66.607390553 133.0
66.612314409 153.0
66.617238265 145.0
66.622162121 149.0
66.627085977 146.0
66.632009833 174.0
66.636933689 138.0
66.641857545 149.0
66.646781401 133.0
66.651705257 152.0
66.656629113 164.0
66.661552969 159.0
66.666476826 161.0
66.671400682 149.0
66.676324538 152.0
66.681248394 151.0
66.686172250 148.0
66.691096106 162.0
66.696019962 149.0
66.700943818 141.0
66.705867674 152.0
66.710791530 154.0
66.715715386 155.0
66.720639242 156.0
66.725563098 140.0
66.730486954 139.0
66.735410810 175.0
66.740334666 144.0
66.745258522 148.0
66.750182378 151.0
66.755106234 146.0
66.760030090 164.0
66.764953946 179.0
66.769877802 143.0
66.774801658 180.0
66.779725514 138.0
66.784649370 174.0
66.789573226 175.0
66.794497082 177.0
66.799420938 158.0
66.804344794 185.0
66.809268650 172.0
66.814192506 172.0
66.819116362 192.0
66.824040218 157.0
66.828964074 195.0
66.833887930 166.0
66.838811786 181.0
66.843735642 159.0
66.848659498 171.0
66.853583354 192.0
66.858507210 158.0
66.863431066 165.0
66.868354922 161.0
66.873278778 164.0
66.878202634 166.0
66.883126490 152.0
66.888050346 184.0
66.892974202 153.0
66.897898058 144.0
66.902821914 160.0
66.907745770 187.0
66.912669626 160.0
66.917593482 171.0
66.922517338 167.0
66.927441194 174.0
66.932365050 184.0
66.937288906 180.0
66.942212762 190.0
66.947136618 166.0
66.952060474 200.0
66.956984330 155.0
66.961908186 179.0
66.966832042 180.0
66.971755898 181.0
66.976679754 190.0
66.981603610 180.0
66.986527466 186.0
66.991451322 175.0
66.996375178 171.0
67.001299034 186.0
67.006222890 195.0
67.011146746 187.0
67.016070602 206.0
67.020994458 195.0
67.025918314 200.0
67.030842170 175.0
67.035766026 199.0
67.040689883 210.0
67.045613739 207.0
67.050537595 209.0
67.055461451 207.0
67.060385307 216.0
67.065309163 204.0
67.070233019 198.0
67.075156875 200.0
67.080080731 192.0
67.085004587 200.0
67.089928443 198.0
67.094852299 219.0
67.099776155 185.0
67.104700011 203.0
67.109623867 212.0
67.114547723 193.0
67.119471579 212.0
67.124395435 197.0
67.129319291 284.0
67.134243147 202.0
67.139167003 266.0
67.144090859 221.0
67.149014715 197.0
67.153938571 216.0
67.158862427 267.0
67.163786283 263.0
67.168710139 257.0
67.173633995 211.0
67.178557851 291.0
67.183481707 261.0
67.188405563 257.0
67.193329419 264.0
67.198253275 200.0
67.203177131 273.0
67.208100987 291.0
67.213024843 263.0
67.217948699 293.0
67.222872555 322.0
67.227796411 273.0
67.232720267 289.0
67.237644123 286.0
67.242567979 277.0
67.247491835 289.0
67.252415691 281.0
67.257339547 275.0
67.262263403 266.0
67.267187259 271.0
67.272111115 299.0
67.277034971 287.0
67.281958827 322.0
67.286882683 259.0
67.291806539 266.0
67.296730395 273.0
67.301654251 296.0
67.306578107 301.0
67.311501963 267.0
67.316425819 277.0
67.321349675 329.0
67.326273531 278.0
67.331197387 307.0
67.336121243 330.0
67.341045099 281.0
67.345968955 279.0
67.350892811 279.0
67.355816667 317.0
67.360740523 312.0
67.365664379 292.0
67.370588235 303.0
67.375512091 328.0
67.380435947 300.0
67.385359803 314.0
67.390283659 337.0
67.395207515 316.0
67.400131371 328.0
67.405055227 351.0
67.409979084 334.0
67.414902940 336.0
67.419826796 345.0
67.424750652 350.0
67.429674508 365.0
67.434598364 371.0
67.439522220 345.0
67.444446076 321.0
67.449369932 378.0
67.454293788 355.0
67.459217644 368.0
67.464141500 360.0
67.469065356 364.0
67.473989212 399.0
67.478913068 340.0
67.483836924 371.0
67.488760780 347.0
67.493684636 386.0
67.498608492 407.0
67.503532348 396.0
67.508456204 366.0
67.513380060 408.0
67.518303916 401.0
67.523227772 416.0
67.528151628 399.0
67.533075484 453.0
67.537999340 428.0
67.542923196 428.0
67.547847052 430.0
67.552770908 375.0
67.557694764 414.0
67.562618620 429.0
67.567542476 412.0
67.572466332 468.0
67.577390188 404.0
67.582314044 473.0
67.587237900 442.0
67.592161756 452.0
67.597085612 456.0
67.602009468 500.0
67.606933324 506.0
67.611857180 430.0
67.616781036 518.0
67.621704892 487.0
67.626628748 531.0
67.631552604 493.0
67.636476460 464.0
67.641400316 570.0
67.646324172 480.0
67.651248028 502.0
67.656171884 548.0
67.661095740 507.0
67.666019596 549.0
67.670943452 564.0
67.675867308 551.0
67.680791164 572.0
67.685715020 619.0
67.690638876 587.0
67.695562732 594.0
67.700486588 661.0
67.705410444 696.0
67.710334300 722.0
67.715258156 737.0
67.720182012 764.0
67.725105868 759.0
67.730029724 787.0
67.734953580 855.0
67.739877436 890.0
67.744801292 916.0
67.749725148 999.0
67.754649004 1046.0
67.759572860 1103.0
67.764496716 1225.0
67.769420572 1175.0
67.774344428 1277.0
67.779268285 1267.0
67.784192141 1357.0
67.789115997 1341.0
67.794039853 1450.0
67.798963709 1448.0
67.803887565 1616.0
67.808811421 1662.0
67.813735277 1684.0
67.818659133 1640.0
67.823582989 1713.0
67.828506845 1697.0
67.833430701 1709.0
67.838354557 1764.0
67.843278413 1772.0
67.848202269 1788.0
67.853126125 1710.0
67.858049981 1726.0
67.862973837 1741.0
67.867897693 1773.0
67.872821549 1701.0
67.877745405 1728.0
67.882669261 1597.0
67.887593117 1664.0
67.892516973 1662.0
67.897440829 1656.0
67.902364685 1574.0
67.907288541 1661.0
67.912212397 1606.0
67.917136253 1646.0
67.922060109 1719.0
67.926983965 1705.0
67.931907821 1713.0
67.936831677 1820.0
67.941755533 1878.0
67.946679389 1824.0
67.951603245 1969.0
67.956527101 1949.0
67.961450957 2052.0
67.966374813 2049.0
67.971298669 2075.0
67.976222525 2309.0
67.981146381 2366.0
67.986070237 2540.0
67.990994093 2439.0
67.995917949 2745.0
68.000841805 2705.0
68.005765661 3117.0
68.010689517 3046.0
68.015613373 3504.0
68.020537229 3566.0
68.025461085 3955.0
68.030384941 4039.0
68.035308797 4501.0
68.040232653 4880.0
68.045156509 5253.0
68.050080365 5649.0
68.055004221 6421.0
68.059928077 6598.0
68.064851933 7755.0
68.069775789 8166.0
68.074699645 9537.0
68.079623501 10448.0
68.084547357 12119.0
68.089471213 14041.0
68.094395069 16521.0
68.099318925 19660.0
68.104242781 22861.0
68.109166637 29293.0
68.114090493 34541.0
68.119014349 50355.0
68.123938205 60165.0
68.128862061 99932.0
68.133785917 113599.0
68.138709773 177944.0
68.143633629 186724.0
68.148557486 224392.0
68.153481342 221664.0
68.158405198 210280.0
68.163329054 198562.0
68.168252910 147334.0
68.173176766 134651.0
68.178100622 87712.0
68.183024478 79691.0
68.187948334 53300.0
68.192872190 49096.0
68.197796046 33880.0
68.202719902 31052.0
68.207643758 22785.0
68.212567614 20700.0
68.217491470 16659.0
68.222415326 15040.0
68.227339182 12434.0
68.232263038 11562.0
68.237186894 10451.0
68.242110750 9536.0
68.247034606 9188.0
68.251958462 8450.0
68.256882318 8477.0
68.261806174 8228.0
68.266730030 8758.0
68.271653886 8722.0
68.276577742 9655.0
68.281501598 10314.0
68.286425454 11508.0
68.291349310 13129.0
68.296273166 14997.0
68.301197022 17634.0
68.306120878 21473.0
68.311044734 27135.0
68.315968590 35537.0
68.320892446 46682.0
68.325816302 61568.0
68.330740158 77250.0
68.335664014 91763.0
68.340587870 101672.0
68.345511726 105364.0
68.350435582 103267.0
68.355359438 94961.0
68.360283294 82997.0
68.365207150 68226.0
68.370131006 54508.0
68.375054862 43222.0
68.379978718 34339.0
68.384902574 26792.0
68.389826430 21248.0
68.394750286 16912.0
68.399674142 14276.0
68.404597998 11626.0
68.409521854 9867.0
68.414445710 8401.0
68.419369566 7267.0
68.424293422 6451.0
68.429217278 5689.0
68.434141134 5115.0
68.439064990 4577.0
68.443988846 4185.0
68.448912702 3904.0
68.453836558 3701.0
68.458760414 3290.0
68.463684270 3129.0
68.468608126 3007.0
68.473531982 2725.0
68.478455838 2687.0
68.483379694 2540.0
68.488303550 2534.0
68.493227406 2263.0
68.498151262 2264.0
68.503075118 2048.0
68.507998974 2023.0
68.512922830 1898.0
68.517846687 1856.0
68.522770543 1788.0
68.527694399 1762.0
68.532618255 1683.0
68.537542111 1703.0
68.542465967 1620.0
68.547389823 1511.0
68.552313679 1502.0
68.557237535 1488.0
68.562161391 1354.0
68.567085247 1378.0
68.572009103 1354.0
68.576932959 1310.0
68.581856815 1164.0
68.586780671 1155.0
68.591704527 1181.0
68.596628383 1080.0
68.601552239 1148.0
68.606476095 1136.0
68.611399951 1080.0
68.616323807 1015.0
68.621247663 1020.0
68.626171519 987.0
68.631095375 954.0
68.636019231 922.0
68.640943087 969.0
68.645866943 936.0
68.650790799 885.0
68.655714655 882.0
68.660638511 882.0
68.665562367 866.0
68.670486223 776.0
68.675410079 776.0
68.680333935 803.0
68.685257791 781.0
68.690181647 794.0
68.695105503 702.0
68.700029359 660.0
68.704953215 750.0
68.709877071 684.0
68.714800927 655.0
68.719724783 688.0
68.724648639 732.0
68.729572495 658.0
68.734496351 685.0
68.739420207 643.0
68.744344063 660.0
68.749267919 689.0
68.754191775 628.0
68.759115631 629.0
68.764039487 624.0
68.768963343 578.0
68.773887199 562.0
68.778811055 585.0
68.783734911 590.0
68.788658767 558.0
68.793582623 510.0
68.798506479 560.0
68.803430335 517.0
68.808354191 506.0
68.813278047 502.0
68.818201903 515.0
68.823125759 459.0
68.828049615 527.0
68.832973471 458.0
68.837897327 478.0
68.842821183 443.0
68.847745039 462.0
68.852668895 437.0
68.857592751 462.0
68.862516607 474.0
68.867440463 441.0
68.872364319 444.0
68.877288175 400.0
68.882212031 426.0
68.887135887 420.0
68.892059744 465.0
68.896983600 442.0
68.901907456 441.0
68.906831312 420.0
68.911755168 394.0
68.916679024 393.0
68.921602880 429.0
68.926526736 366.0
68.931450592 409.0
68.936374448 381.0
68.941298304 395.0
68.946222160 361.0
68.951146016 383.0
68.956069872 376.0
68.960993728 413.0
68.965917584 401.0
68.970841440 371.0
68.975765296 348.0
68.980689152 353.0
68.985613008 360.0
68.990536864 350.0
68.995460720 343.0
69.000384576 371.0
69.005308432 345.0
69.010232288 291.0
69.015156144 338.0
69.020080000 335.0
69.025003856 318.0
69.029927712 319.0
69.034851568 354.0
69.039775424 342.0
69.044699280 327.0
69.049623136 320.0
69.054546992 313.0
69.059470848 305.0
69.064394704 305.0
69.069318560 289.0
69.074242416 292.0
69.079166272 313.0
69.084090128 296.0
69.089013984 291.0
69.093937840 318.0
69.098861696 284.0
69.103785552 268.0
69.108709408 282.0
69.113633264 283.0
69.118557120 289.0
69.123480976 275.0
69.128404832 282.0
69.133328688 273.0
69.138252544 266.0
69.143176400 202.0
69.148100256 280.0
69.153024112 277.0
69.157947968 268.0
69.162871824 212.0
69.167795680 214.0
69.172719536 213.0
69.177643392 273.0
69.182567248 213.0
69.187491104 273.0
69.192414960 255.0
69.197338816 271.0
69.202262672 266.0
69.207186528 265.0
69.212110384 282.0
69.217034240 212.0
69.221958096 206.0
69.226881952 260.0
69.231805808 196.0
69.236729664 192.0
69.241653520 211.0
69.246577376 212.0
69.251501232 200.0
69.256425088 205.0
69.261348945 207.0
69.266272801 195.0
69.271196657 187.0
69.276120513 182.0
69.281044369 203.0
69.285968225 173.0
69.290892081 208.0
69.295815937 189.0
69.300739793 175.0
69.305663649 194.0
69.310587505 189.0
69.315511361 189.0
69.320435217 197.0
69.325359073 199.0
69.330282929 182.0
69.335206785 168.0
69.340130641 181.0
69.345054497 194.0
69.349978353 160.0
69.354902209 173.0
69.359826065 172.0
69.364749921 178.0
69.369673777 171.0
69.374597633 186.0
69.379521489 164.0
69.384445345 158.0
69.389369201 156.0
69.394293057 151.0
69.399216913 188.0
69.404140769 173.0
69.409064625 185.0
69.413988481 171.0
69.418912337 161.0
69.423836193 159.0
69.428760049 169.0
69.433683905 166.0
69.438607761 163.0
69.443531617 162.0
69.448455473 146.0
69.453379329 139.0
69.458303185 150.0
69.463227041 154.0
69.468150897 135.0
69.473074753 157.0
69.477998609 143.0
69.482922465 155.0
69.487846321 140.0
69.492770177 139.0
69.497694033 147.0
69.502617889 127.0
69.507541745 161.0
69.512465601 123.0
69.517389457 124.0
69.522313313 139.0
69.527237169 131.0
69.532161025 123.0
69.537084881 136.0
69.542008737 129.0
69.546932593 151.0
69.551856449 160.0
69.556780305 136.0
69.561704161 137.0
69.566628017 125.0
69.571551873 136.0
69.576475729 147.0
69.581399585 132.0
69.586323441 117.0
69.591247297 140.0
69.596171153 113.0
69.601095009 146.0
69.606018865 126.0
69.610942721 109.0
69.615866577 119.0
69.620790433 104.0
69.625714289 115.0
69.630638146 117.0
69.635562002 116.0
69.640485858 93.0
69.645409714 132.0
69.650333570 135.0
69.655257426 125.0
69.660181282 116.0
69.665105138 128.0
69.670028994 119.0
69.674952850 119.0
69.679876706 103.0
69.684800562 126.0
69.689724418 122.0
69.694648274 123.0
69.699572130 110.0
69.704495986 136.0
69.709419842 109.0
69.714343698 119.0
69.719267554 123.0
69.724191410 107.0
69.729115266 111.0
69.734039122 113.0
69.738962978 121.0
69.743886834 115.0
69.748810690 95.0
69.753734546 112.0
69.758658402 117.0
69.763582258 116.0
69.768506114 118.0
69.773429970 100.0
69.778353826 118.0
69.783277682 127.0
69.788201538 91.0
69.793125394 97.0
69.798049250 97.0
69.802973106 102.0
69.807896962 119.0
69.812820818 114.0
69.817744674 117.0
69.822668530 121.0
69.827592386 111.0
69.832516242 87.0
69.837440098 96.0
69.842363954 126.0
69.847287810 112.0
69.852211666 104.0
69.857135522 108.0
69.862059378 120.0
69.866983234 115.0
69.871907090 104.0
69.876830946 103.0
69.881754802 103.0
69.886678658 107.0
69.891602514 115.0
69.896526370 94.0
69.901450226 99.0
69.906374082 111.0
69.911297938 106.0
69.916221794 103.0
69.921145650 87.0
69.926069506 95.0
69.930993362 119.0
69.935917218 111.0
69.940841074 85.0
69.945764930 112.0
69.950688786 98.0
69.955612642 98.0
69.960536498 96.0
69.965460354 88.0
69.970384210 105.0
69.975308066 102.0
69.980231922 95.0
69.985155778 90.0
69.990079634 87.0
69.995003490 113.0
69.999927347 105.0
70.004851203 112.0
70.009775059 88.0
70.014698915 92.0
70.019622771 104.0
70.024546627 95.0
70.029470483 97.0
70.034394339 94.0
70.039318195 91.0
70.044242051 101.0
70.049165907 82.0
70.054089763 81.0
70.059013619 87.0
70.063937475 91.0
70.068861331 91.0
70.073785187 99.0
70.078709043 85.0
70.083632899 104.0
70.088556755 93.0
70.093480611 90.0
70.098404467 83.0
70.103328323 92.0
70.108252179 92.0
70.113176035 88.0
70.118099891 80.0
70.123023747 86.0
70.127947603 88.0
70.132871459 82.0
70.137795315 100.0
70.142719171 88.0
70.147643027 91.0
70.152566883 74.0
70.157490739 82.0
70.162414595 81.0
70.167338451 90.0
70.172262307 69.0
70.177186163 87.0
70.182110019 94.0
70.187033875 88.0
70.191957731 95.0
70.196881587 82.0
70.201805443 92.0
70.206729299 81.0
70.211653155 79.0
70.216577011 104.0
70.221500867 104.0
70.226424723 92.0
70.231348579 90.0
70.236272435 83.0
70.241196291 68.0
70.246120147 85.0
70.251044003 100.0
70.255967859 94.0
70.260891715 85.0
70.265815571 89.0
70.270739427 105.0
70.275663283 86.0
70.280587139 96.0
70.285510995 80.0
70.290434851 89.0
70.295358707 89.0
70.300282563 96.0
70.305206419 97.0
70.310130275 89.0
70.315054131 83.0
70.319977987 80.0
70.324901843 81.0
70.329825699 89.0
70.334749555 95.0
70.339673411 91.0
70.344597267 85.0
70.349521123 72.0
70.354444979 85.0
70.359368835 81.0
70.364292691 86.0
70.369216548 81.0
70.374140404 87.0
70.379064260 71.0
70.383988116 94.0
70.388911972 97.0
70.393835828 88.0
70.398759684 93.0
70.403683540 78.0
70.408607396 90.0
70.413531252 81.0
70.418455108 80.0
70.423378964 83.0
70.428302820 61.0
70.433226676 75.0
70.438150532 78.0
70.443074388 91.0
70.447998244 72.0
70.452922100 88.0
70.457845956 75.0
70.462769812 71.0
70.467693668 84.0
70.472617524 75.0
70.477541380 80.0
70.482465236 86.0
70.487389092 64.0
70.492312948 87.0
70.497236804 86.0
70.502160660 73.0
70.507084516 78.0
70.512008372 75.0
70.516932228 75.0
70.521856084 81.0
70.526779940 87.0
70.531703796 74.0
70.536627652 79.0
70.541551508 82.0
70.546475364 92.0
70.551399220 86.0
70.556323076 82.0
70.561246932 87.0
70.566170788 89.0
70.571094644 81.0
70.576018500 63.0
70.580942356 71.0
70.585866212 82.0
70.590790068 78.0
70.595713924 63.0
70.600637780 72.0
70.605561636 88.0
70.610485492 81.0
70.615409348 85.0
70.620333204 75.0
70.625257060 91.0
70.630180916 95.0
70.635104772 70.0
70.640028628 78.0
70.644952484 81.0
70.649876340 73.0
70.654800196 65.0
70.659724052 74.0
70.664647908 82.0
70.669571764 83.0
70.674495620 75.0
70.679419476 74.0
70.684343332 83.0
70.689267188 77.0
70.694191044 88.0
70.699114900 79.0
70.704038756 88.0
70.708962612 77.0
70.713886468 72.0
70.718810324 72.0
70.723734180 93.0
70.728658036 78.0
70.733581892 78.0
70.738505748 81.0
70.743429605 78.0
70.748353461 73.0
70.753277317 83.0
70.758201173 89.0
70.763125029 73.0
70.768048885 88.0
70.772972741 73.0
70.777896597 77.0
70.782820453 65.0
70.787744309 79.0
70.792668165 71.0
70.797592021 87.0
70.802515877 70.0
70.807439733 70.0
70.812363589 78.0
70.817287445 74.0
70.822211301 69.0
70.827135157 83.0
70.832059013 77.0
70.836982869 99.0
70.841906725 64.0
70.846830581 78.0
70.851754437 81.0
70.856678293 71.0
70.861602149 72.0
70.866526005 80.0
70.871449861 61.0
70.876373717 79.0
70.881297573 88.0
70.886221429 76.0
70.891145285 65.0
70.896069141 68.0
70.900992997 67.0
70.905916853 67.0
70.910840709 96.0
70.915764565 77.0
70.920688421 78.0
70.925612277 89.0
70.930536133 80.0
70.935459989 86.0
70.940383845 88.0
70.945307701 76.0
70.950231557 74.0
70.955155413 79.0
70.960079269 70.0
70.965003125 59.0
70.969926981 93.0
70.974850837 89.0
70.979774693 65.0
70.984698549 78.0
70.989622405 74.0
70.994546261 91.0
70.999470117 71.0
71.004393973 82.0
71.009317829 88.0
71.014241685 90.0
71.019165541 86.0
71.024089397 80.0
71.029013253 72.0
71.033937109 70.0
71.038860965 82.0
71.043784821 74.0
71.048708677 72.0
71.053632533 74.0
71.058556389 79.0
71.063480245 67.0
71.068404101 74.0
71.073327957 89.0
71.078251813 71.0
71.083175669 70.0
71.088099525 71.0
71.093023381 64.0
71.097947237 83.0
71.102871093 86.0
71.107794949 83.0
71.112718806 80.0
71.117642662 71.0
71.122566518 70.0
71.127490374 81.0
71.132414230 80.0
71.137338086 77.0
71.142261942 69.0
71.147185798 78.0
71.152109654 60.0
71.157033510 75.0
71.161957366 71.0
71.166881222 77.0
71.171805078 91.0
71.176728934 80.0
71.181652790 61.0
71.186576646 73.0
71.191500502 66.0
71.196424358 72.0
71.201348214 72.0
71.206272070 69.0
71.211195926 85.0
71.216119782 81.0
71.221043638 65.0
71.225967494 73.0
71.230891350 74.0
71.235815206 71.0
71.240739062 73.0
71.245662918 69.0
71.250586774 76.0
71.255510630 76.0
71.260434486 68.0
71.265358342 60.0
71.270282198 83.0
71.275206054 89.0
71.280129910 73.0
71.285053766 62.0
71.289977622 91.0
71.294901478 82.0
71.299825334 63.0
71.304749190 71.0
71.309673046 74.0
71.314596902 74.0
71.319520758 70.0
71.324444614 84.0
71.329368470 65.0
71.334292326 82.0
71.339216182 75.0
71.344140038 79.0
71.349063894 65.0
71.353987750 78.0
71.358911606 72.0
71.363835462 56.0
71.368759318 50.0
71.373683174 70.0
71.378607030 67.0
71.383530886 84.0
71.388454742 75.0
71.393378598 74.0
71.398302454 73.0
71.403226310 64.0
71.408150166 69.0
71.413074022 83.0
71.417997878 69.0
71.422921734 72.0
71.427845590 77.0
71.432769446 62.0
71.437693302 76.0
71.442617158 58.0
71.447541014 57.0
71.452464870 58.0
71.457388726 64.0
71.462312582 70.0
71.467236438 63.0
71.472160294 62.0
71.477084150 72.0
71.482008007 88.0
71.486931863 80.0
71.491855719 59.0
71.496779575 61.0
71.501703431 64.0
71.506627287 67.0
71.511551143 96.0
71.516474999 61.0
71.521398855 70.0
71.526322711 79.0
71.531246567 83.0
71.536170423 66.0
71.541094279 63.0
71.546018135 65.0
71.550941991 82.0
71.555865847 78.0
71.560789703 69.0
71.565713559 72.0
71.570637415 66.0
71.575561271 81.0
71.580485127 66.0
71.585408983 68.0
71.590332839 81.0
71.595256695 63.0
71.600180551 78.0
71.605104407 63.0
71.610028263 67.0
71.614952119 71.0
71.619875975 76.0
71.624799831 76.0
71.629723687 71.0
71.634647543 76.0
71.639571399 56.0
71.644495255 82.0
71.649419111 52.0
71.654342967 69.0
71.659266823 59.0
71.664190679 73.0
71.669114535 59.0
71.674038391 77.0
71.678962247 86.0
71.683886103 74.0
71.688809959 60.0
71.693733815 63.0
71.698657671 62.0
71.703581527 69.0
71.708505383 75.0
71.713429239 74.0
71.718353095 68.0
71.723276951 63.0
71.728200807 73.0
71.733124663 77.0
71.738048519 69.0
71.742972375 74.0
71.747896231 72.0
71.752820087 73.0
71.757743943 73.0
71.762667799 64.0
71.767591655 69.0
71.772515511 71.0
71.777439367 82.0
71.782363223 81.0
71.787287079 82.0
71.792210935 76.0
71.797134791 58.0
71.802058647 72.0
71.806982503 64.0
71.811906359 72.0
71.816830215 67.0
71.821754071 76.0
71.826677927 70.0
71.831601783 65.0
71.836525639 70.0
71.841449495 70.0
71.846373351 75.0
71.851297208 68.0
71.856221064 70.0
71.861144920 72.0
71.866068776 65.0
71.870992632 62.0
71.875916488 57.0
71.880840344 66.0
71.885764200 89.0
71.890688056 77.0
71.895611912 69.0
71.900535768 76.0
71.905459624 72.0
71.910383480 67.0
71.915307336 80.0
71.920231192 51.0
71.925155048 71.0
71.930078904 72.0
71.935002760 75.0
71.939926616 72.0
71.944850472 72.0
71.949774328 71.0
71.954698184 93.0
71.959622040 60.0
71.964545896 62.0
71.969469752 73.0
71.974393608 58.0
71.979317464 51.0
71.984241320 77.0
71.989165176 71.0
71.994089032 64.0
71.999012888 70.0
72.003936744 56.0
72.008860600 65.0
72.013784456 61.0
72.018708312 77.0
72.023632168 60.0
72.028556024 74.0
72.033479880 64.0
72.038403736 70.0
72.043327592 69.0
72.048251448 67.0
72.053175304 73.0
72.058099160 63.0
72.063023016 64.0
72.067946872 85.0
72.072870728 62.0
72.077794584 72.0
72.082718440 68.0
72.087642296 87.0
72.092566152 58.0
72.097490008 70.0
72.102413864 63.0
72.107337720 77.0
72.112261576 63.0
72.117185432 63.0
72.122109288 66.0
72.127033144 78.0
72.131957000 58.0
72.136880856 77.0
72.141804712 66.0
72.146728568 79.0
72.151652424 55.0
72.156576280 77.0
72.161500136 74.0
72.166423992 57.0
72.171347848 68.0
72.176271704 74.0
72.181195560 68.0
72.186119416 80.0
72.191043272 68.0
72.195967128 81.0
72.200890984 66.0
72.205814840 71.0
72.210738696 81.0
72.215662552 70.0
72.220586409 78.0
72.225510265 76.0
72.230434121 65.0
72.235357977 57.0
72.240281833 67.0
72.245205689 63.0
72.250129545 76.0
72.255053401 74.0
72.259977257 87.0
72.264901113 77.0
72.269824969 72.0
72.274748825 67.0
72.279672681 78.0
72.284596537 67.0
72.289520393 54.0
72.294444249 75.0
72.299368105 81.0
72.304291961 69.0
72.309215817 62.0
72.314139673 66.0
72.319063529 86.0
72.323987385 67.0
72.328911241 65.0
72.333835097 73.0
72.338758953 56.0
72.343682809 64.0
72.348606665 79.0
72.353530521 72.0
72.358454377 71.0
72.363378233 67.0
72.368302089 67.0
72.373225945 68.0
72.378149801 79.0
72.383073657 68.0
72.387997513 53.0
72.392921369 82.0
72.397845225 70.0
72.402769081 64.0
72.407692937 63.0
72.412616793 67.0
72.417540649 68.0
72.422464505 71.0
72.427388361 54.0
72.432312217 79.0
72.437236073 75.0
72.442159929 93.0
72.447083785 71.0
72.452007641 65.0
72.456931497 64.0
72.461855353 68.0
72.466779209 75.0
72.471703065 71.0
72.476626921 75.0
72.481550777 73.0
72.486474633 46.0
72.491398489 65.0
72.496322345 63.0
72.501246201 69.0
72.506170057 69.0
72.511093913 59.0
72.516017769 67.0
72.520941625 73.0
72.525865481 66.0
72.530789337 83.0
72.535713193 90.0
72.540637049 68.0
72.545560905 64.0
72.550484761 77.0
72.555408617 73.0
72.560332473 56.0
72.565256329 86.0
72.570180185 75.0
72.575104041 67.0
72.580027897 59.0
72.584951753 53.0
72.589875609 74.0
72.594799466 66.0
72.599723322 60.0
72.604647178 80.0
72.609571034 63.0
72.614494890 62.0
72.619418746 58.0
72.624342602 67.0
72.629266458 76.0
72.634190314 70.0
72.639114170 69.0
72.644038026 68.0
72.648961882 65.0
72.653885738 67.0
72.658809594 67.0
72.663733450 75.0
72.668657306 67.0
72.673581162 74.0
72.678505018 67.0
72.683428874 67.0
72.688352730 62.0
72.693276586 72.0
72.698200442 62.0
72.703124298 69.0
72.708048154 58.0
72.712972010 67.0
72.717895866 68.0
72.722819722 68.0
72.727743578 84.0
72.732667434 84.0
72.737591290 77.0
72.742515146 70.0
72.747439002 62.0
72.752362858 72.0
72.757286714 74.0
72.762210570 76.0
72.767134426 66.0
72.772058282 58.0
72.776982138 60.0
72.781905994 48.0
72.786829850 77.0
72.791753706 59.0
72.796677562 65.0
72.801601418 68.0
72.806525274 67.0
72.811449130 71.0
72.816372986 66.0
72.821296842 65.0
72.826220698 72.0
72.831144554 59.0
72.836068410 65.0
72.840992266 73.0
72.845916122 66.0
72.850839978 61.0
72.855763834 59.0
72.860687690 62.0
72.865611546 54.0
72.870535402 67.0
72.875459258 59.0
72.880383114 74.0
72.885306970 66.0
72.890230826 58.0
72.895154682 65.0
72.900078538 63.0
72.905002394 67.0
72.909926250 72.0
72.914850106 59.0
72.919773962 55.0
72.924697818 65.0
72.929621674 71.0
72.934545530 64.0
72.939469386 53.0
72.944393242 68.0
72.949317098 74.0
72.954240954 54.0
72.959164810 73.0
72.964088667 69.0
72.969012523 68.0
72.973936379 62.0
72.978860235 62.0
72.983784091 74.0
72.988707947 77.0
72.993631803 68.0
72.998555659 60.0
73.003479515 74.0
73.008403371 64.0
73.013327227 60.0
73.018251083 86.0
73.023174939 62.0
73.028098795 56.0
73.033022651 77.0
73.037946507 73.0
73.042870363 61.0
73.047794219 56.0
73.052718075 71.0
73.057641931 62.0
73.062565787 70.0
73.067489643 62.0
73.072413499 69.0
73.077337355 70.0
73.082261211 67.0
73.087185067 67.0
73.092108923 65.0
73.097032779 61.0
73.101956635 62.0
73.106880491 68.0
73.111804347 67.0
73.116728203 64.0
73.121652059 69.0
73.126575915 79.0
73.131499771 75.0
73.136423627 78.0
73.141347483 67.0
73.146271339 55.0
73.151195195 63.0
73.156119051 71.0
73.161042907 66.0
73.165966763 77.0
73.170890619 62.0
73.175814475 76.0
73.180738331 62.0
73.185662187 58.0
73.190586043 60.0
73.195509899 62.0
73.200433755 69.0
73.205357611 73.0
73.210281467 69.0
73.215205323 52.0
73.220129179 68.0
73.225053035 68.0
73.229976891 54.0
73.234900747 60.0
73.239824603 72.0
73.244748459 63.0
73.249672315 51.0
73.254596171 71.0
73.259520027 70.0
73.264443883 61.0
73.269367739 74.0
73.274291595 53.0
73.279215451 75.0
73.284139307 76.0
73.289063163 67.0
73.293987019 56.0
73.298910875 82.0
73.303834731 57.0
73.308758587 59.0
73.313682443 69.0
73.318606299 84.0
73.323530155 70.0
73.328454011 64.0
73.333377868 62.0
73.338301724 68.0
73.343225580 81.0
73.348149436 55.0
73.353073292 56.0
73.357997148 66.0
73.362921004 71.0
73.367844860 73.0
73.372768716 73.0
73.377692572 62.0
73.382616428 47.0
73.387540284 51.0
73.392464140 65.0
73.397387996 65.0
73.402311852 66.0
73.407235708 60.0
73.412159564 70.0
73.417083420 58.0
73.422007276 58.0
73.426931132 75.0
73.431854988 68.0
73.436778844 69.0
73.441702700 64.0
73.446626556 68.0
73.451550412 54.0
73.456474268 64.0
73.461398124 54.0
73.466321980 60.0
73.471245836 57.0
73.476169692 82.0
73.481093548 66.0
73.486017404 82.0
73.490941260 57.0
73.495865116 67.0
73.500788972 44.0
73.505712828 58.0
73.510636684 56.0
73.515560540 62.0
73.520484396 71.0
73.525408252 58.0
73.530332108 71.0
73.535255964 64.0
73.540179820 71.0
73.545103676 66.0
73.550027532 73.0
73.554951388 59.0
73.559875244 73.0
73.564799100 59.0
73.569722956 63.0
73.574646812 83.0
73.579570668 51.0
73.584494524 47.0
73.589418380 67.0
73.594342236 61.0
73.599266092 63.0
73.604189948 73.0
73.609113804 62.0
73.614037660 55.0
73.618961516 68.0
73.623885372 64.0
73.628809228 57.0
73.633733084 67.0
73.638656940 65.0
73.643580796 56.0
73.648504652 56.0
73.653428508 61.0
73.658352364 63.0
73.663276220 67.0
73.668200076 68.0
73.673123932 58.0
73.678047788 54.0
73.682971644 67.0
73.687895500 68.0
73.692819356 49.0
73.697743212 57.0
73.702667069 68.0
73.707590925 62.0
73.712514781 64.0
73.717438637 54.0
73.722362493 70.0
73.727286349 75.0
73.732210205 62.0
73.737134061 63.0
73.742057917 48.0
73.746981773 63.0
73.751905629 65.0
73.756829485 64.0
73.761753341 51.0
73.766677197 60.0
73.771601053 61.0
73.776524909 65.0
73.781448765 67.0
73.786372621 67.0
73.791296477 78.0
73.796220333 55.0
73.801144189 74.0
73.806068045 64.0
73.810991901 63.0
73.815915757 42.0
73.820839613 70.0
73.825763469 64.0
73.830687325 63.0
73.835611181 58.0
73.840535037 71.0
73.845458893 51.0
73.850382749 50.0
73.855306605 51.0
73.860230461 69.0
73.865154317 78.0
73.870078173 63.0
73.875002029 68.0
73.879925885 70.0
73.884849741 52.0
73.889773597 57.0
73.894697453 61.0
73.899621309 70.0
73.904545165 63.0
73.909469021 63.0
73.914392877 71.0
73.919316733 71.0
73.924240589 73.0
73.929164445 75.0
73.934088301 59.0
73.939012157 65.0
73.943936013 71.0
73.948859869 75.0
73.953783725 58.0
73.958707581 56.0
73.963631437 56.0
73.968555293 62.0
73.973479149 66.0
73.978403005 67.0
73.983326861 50.0
73.988250717 68.0
73.993174573 54.0
73.998098429 74.0
74.003022285 58.0
74.007946141 60.0
74.012869997 59.0
74.017793853 70.0
74.022717709 61.0
74.027641565 68.0
74.032565421 63.0
74.037489277 73.0
74.042413133 66.0
74.047336989 67.0
74.052260845 70.0
74.057184701 58.0
74.062108557 73.0
74.067032413 57.0
74.071956270 55.0
74.076880126 79.0
74.081803982 63.0
74.086727838 71.0
74.091651694 54.0
74.096575550 63.0
74.101499406 59.0
74.106423262 49.0
74.111347118 72.0
74.116270974 68.0
74.121194830 59.0
74.126118686 71.0
74.131042542 64.0
74.135966398 62.0
74.140890254 56.0
74.145814110 68.0
74.150737966 78.0
74.155661822 55.0
74.160585678 64.0
74.165509534 74.0
74.170433390 58.0
74.175357246 62.0
74.180281102 59.0
74.185204958 58.0
74.190128814 62.0
74.195052670 76.0
74.199976526 62.0
74.204900382 66.0
74.209824238 78.0
74.214748094 63.0
74.219671950 67.0
74.224595806 61.0
74.229519662 61.0
74.234443518 68.0
74.239367374 58.0
74.244291230 71.0
74.249215086 79.0
74.254138942 62.0
74.259062798 65.0
74.263986654 84.0
74.268910510 68.0
74.273834366 63.0
74.278758222 57.0
74.283682078 66.0
74.288605934 67.0
74.293529790 70.0
74.298453646 55.0
74.303377502 83.0
74.308301358 70.0
74.313225214 47.0
74.318149070 67.0
74.323072926 64.0
74.327996782 64.0
74.332920638 55.0
74.337844494 69.0
74.342768350 63.0
74.347692206 72.0
74.352616062 68.0
74.357539918 59.0
74.362463774 68.0
74.367387630 60.0
74.372311486 71.0
74.377235342 56.0
74.382159198 55.0
74.387083054 81.0
74.392006910 78.0
74.396930766 54.0
74.401854622 73.0
74.406778478 57.0
74.411702334 78.0
74.416626190 53.0
74.421550046 59.0
74.426473902 66.0
74.431397758 72.0
74.436321614 64.0
74.441245470 66.0
74.446169327 74.0
74.451093183 58.0
74.456017039 54.0
74.460940895 68.0
74.465864751 56.0
74.470788607 69.0
74.475712463 68.0
74.480636319 71.0
74.485560175 69.0
74.490484031 59.0
74.495407887 63.0
74.500331743 61.0
74.505255599 70.0
74.510179455 61.0
74.515103311 65.0
74.520027167 74.0
74.524951023 76.0
74.529874879 65.0
74.534798735 59.0
74.539722591 58.0
74.544646447 64.0
74.549570303 53.0
74.554494159 62.0
74.559418015 49.0
74.564341871 57.0
74.569265727 63.0
74.574189583 64.0
74.579113439 56.0
74.584037295 58.0
74.588961151 61.0
74.593885007 69.0
74.598808863 49.0
74.603732719 67.0
74.608656575 66.0
74.613580431 50.0
74.618504287 54.0
74.623428143 60.0
74.628351999 67.0
74.633275855 71.0
74.638199711 64.0
74.643123567 59.0
74.648047423 58.0
74.652971279 58.0
74.657895135 66.0
74.662818991 63.0
74.667742847 60.0
74.672666703 78.0
74.677590559 59.0
74.682514415 59.0
74.687438271 50.0
74.692362127 56.0
74.697285983 63.0
74.702209839 65.0
74.707133695 67.0
74.712057551 60.0
74.716981407 62.0
74.721905263 53.0
74.726829119 70.0
74.731752975 69.0
74.736676831 64.0
74.741600687 63.0
74.746524543 71.0
74.751448399 70.0
74.756372255 69.0
74.761296111 71.0
74.766219967 58.0
74.771143823 78.0
74.776067679 65.0
74.780991535 60.0
74.785915391 68.0
74.790839247 71.0
74.795763103 72.0
74.800686959 58.0
74.805610815 68.0
74.810534671 68.0
74.815458528 61.0
74.820382384 66.0
74.825306240 54.0
74.830230096 56.0
74.835153952 56.0
74.840077808 61.0
74.845001664 69.0
74.849925520 53.0
74.854849376 61.0
74.859773232 59.0
74.864697088 51.0
74.869620944 60.0
74.874544800 65.0
74.879468656 64.0
74.884392512 64.0
74.889316368 77.0
74.894240224 56.0
74.899164080 61.0
74.904087936 60.0
74.909011792 63.0
74.913935648 63.0
74.918859504 75.0
74.923783360 51.0
74.928707216 61.0
74.933631072 67.0
74.938554928 64.0
74.943478784 65.0
74.948402640 64.0
74.953326496 67.0
74.958250352 69.0
74.963174208 69.0
74.968098064 48.0
74.973021920 71.0
74.977945776 58.0
74.982869632 70.0
74.987793488 60.0
74.992717344 63.0
74.997641200 63.0
