55.001861930 109.0
55.006785786 123.0
55.011709642 117.0
55.016633498 106.0
55.021557354 88.0
55.026481210 125.0
55.031405066 106.0
55.036328922 104.0
55.041252778 116.0
55.046176634 120.0
55.051100490 109.0
55.056024346 109.0
55.060948202 116.0
55.065872058 105.0
55.070795914 132.0
55.075719770 94.0
55.080643626 113.0
55.085567482 96.0
55.090491338 106.0
55.095415194 105.0
55.100339050 109.0
55.105262906 117.0
55.110186762 97.0
55.115110618 126.0
55.120034474 114.0
55.124958330 104.0
55.129882186 121.0
55.134806042 107.0
55.139729898 113.0
55.144653754 121.0
55.149577610 110.0
55.154501466 101.0
55.159425322 106.0
55.164349178 122.0
55.169273034 105.0
55.174196890 95.0
55.179120746 99.0
55.184044602 119.0
55.188968459 122.0
55.193892315 122.0
55.198816171 116.0
55.203740027 109.0
55.208663883 104.0
55.213587739 122.0
55.218511595 112.0
55.223435451 113.0
55.228359307 118.0
55.233283163 113.0
55.238207019 111.0
55.243130875 121.0
55.248054731 123.0
55.252978587 114.0
55.257902443 105.0
55.262826299 134.0
55.267750155 133.0
55.272674011 98.0
55.277597867 113.0
55.282521723 107.0
55.287445579 113.0
55.292369435 111.0
55.297293291 106.0
55.302217147 109.0
55.307141003 118.0
55.312064859 110.0
55.316988715 128.0
55.321912571 122.0
55.326836427 114.0
55.331760283 96.0
55.336684139 109.0
55.341607995 109.0
55.346531851 113.0
55.351455707 100.0
55.356379563 95.0
55.361303419 124.0
55.366227275 109.0
55.371151131 117.0
55.376074987 111.0
55.380998843 114.0
55.385922699 100.0
55.390846555 114.0
55.395770411 105.0
55.400694267 109.0
55.405618123 91.0
55.410541979 113.0
55.415465835 108.0
55.420389691 111.0
55.425313547 125.0
55.430237403 137.0
55.435161259 112.0
55.440085115 117.0
55.445008971 129.0
55.449932827 102.0
55.454856683 110.0
55.459780539 99.0
55.464704395 119.0
55.469628251 120.0
55.474552107 110.0
55.479475963 108.0
55.484399819 105.0
55.489323675 126.0
55.494247531 106.0
55.499171387 114.0
55.504095243 113.0
55.509019099 106.0
55.513942955 101.0
55.518866811 104.0
55.523790667 124.0
55.528714523 117.0
55.533638379 122.0
55.538562235 113.0
55.543486091 112.0
55.548409947 131.0
55.553333803 121.0
55.558257660 114.0
55.563181516 115.0
55.568105372 130.0
55.573029228 128.0
55.577953084 106.0
55.582876940 129.0
55.587800796 100.0
55.592724652 113.0
55.597648508 117.0
55.602572364 80.0
55.607496220 118.0
55.612420076 123.0
55.617343932 114.0
55.622267788 120.0
55.627191644 102.0
55.632115500 102.0
55.637039356 109.0
55.641963212 89.0
55.646887068 126.0
55.651810924 120.0
55.656734780 119.0
55.661658636 122.0
55.666582492 104.0
55.671506348 134.0
55.676430204 122.0
55.681354060 123.0
55.686277916 115.0
55.691201772 107.0
55.696125628 107.0
55.701049484 133.0
55.705973340 115.0
55.710897196 111.0
55.715821052 118.0
55.720744908 121.0
55.725668764 93.0
55.730592620 103.0
55.735516476 123.0
55.740440332 98.0
55.745364188 101.0
55.750288044 101.0
55.755211900 114.0
55.760135756 106.0
55.765059612 118.0
55.769983468 127.0
55.774907324 121.0
55.779831180 107.0
55.784755036 123.0
55.789678892 105.0
55.794602748 125.0
55.799526604 94.0
55.804450460 112.0
55.809374316 98.0
55.814298172 118.0
55.819222028 119.0
55.824145884 105.0
55.829069740 109.0
55.833993596 120.0
55.838917452 112.0
55.843841308 115.0
55.848765164 127.0
55.853689020 105.0
55.858612876 118.0
55.863536732 124.0
55.868460588 106.0
55.873384444 110.0
55.878308300 110.0
55.883232156 128.0
55.888156012 113.0
55.893079868 117.0
55.898003724 119.0
55.902927580 111.0
55.907851436 118.0
55.912775292 109.0
55.917699148 114.0
55.922623004 128.0
55.927546860 111.0
55.932470717 107.0
55.937394573 118.0
55.942318429 114.0
55.947242285 115.0
55.952166141 124.0
55.957089997 99.0
55.962013853 115.0
55.966937709 100.0
55.971861565 129.0
55.976785421 121.0
55.981709277 113.0
55.986633133 111.0
55.991556989 103.0
55.996480845 95.0
56.001404701 107.0
56.006328557 117.0
56.011252413 103.0
56.016176269 113.0
56.021100125 144.0
56.026023981 119.0
56.030947837 103.0
56.035871693 101.0
56.040795549 106.0
56.045719405 105.0
56.050643261 101.0
56.055567117 136.0
56.060490973 108.0
56.065414829 115.0
56.070338685 112.0
56.075262541 103.0
56.080186397 113.0
56.085110253 93.0
56.090034109 114.0
56.094957965 98.0
56.099881821 130.0
56.104805677 113.0
56.109729533 114.0
56.114653389 105.0
56.119577245 121.0
56.124501101 101.0
56.129424957 107.0
56.134348813 102.0
56.139272669 113.0
56.144196525 112.0
56.149120381 118.0
56.154044237 112.0
56.158968093 107.0
56.163891949 93.0
56.168815805 123.0
56.173739661 117.0
56.178663517 110.0
56.183587373 102.0
56.188511229 131.0
56.193435085 115.0
56.198358941 117.0
56.203282797 113.0
56.208206653 130.0
56.213130509 114.0
56.218054365 129.0
56.222978221 118.0
56.227902077 104.0
56.232825933 98.0
56.237749789 90.0
56.242673645 85.0
56.247597501 104.0
56.252521357 110.0
56.257445213 106.0
56.262369069 123.0
56.267292925 121.0
56.272216781 117.0
56.277140637 113.0
56.282064493 115.0
56.286988349 114.0
56.291912205 104.0
56.296836061 117.0
56.301759918 115.0
56.306683774 124.0
56.311607630 112.0
56.316531486 112.0
56.321455342 105.0
56.326379198 105.0
56.331303054 109.0
56.336226910 132.0
56.341150766 128.0
56.346074622 102.0
56.350998478 107.0
56.355922334 124.0
56.360846190 122.0
56.365770046 107.0
56.370693902 99.0
56.375617758 107.0
56.380541614 108.0
56.385465470 88.0
56.390389326 115.0
56.395313182 132.0
56.400237038 112.0
56.405160894 108.0
56.410084750 108.0
56.415008606 124.0
56.419932462 116.0
56.424856318 115.0
56.429780174 120.0
56.434704030 93.0
56.439627886 124.0
56.444551742 102.0
56.449475598 108.0
56.454399454 122.0
56.459323310 137.0
56.464247166 108.0
56.469171022 108.0
56.474094878 111.0
56.479018734 114.0
56.483942590 124.0
56.488866446 125.0
56.493790302 118.0
56.498714158 126.0
56.503638014 119.0
56.508561870 113.0
56.513485726 112.0
56.518409582 100.0
56.523333438 118.0
56.528257294 124.0
56.533181150 118.0
56.538105006 106.0
56.543028862 114.0
56.547952718 121.0
56.552876574 95.0
56.557800430 99.0
56.562724286 100.0
56.567648142 107.0
56.572571998 97.0
56.577495854 127.0
56.582419710 116.0
56.587343566 111.0
56.592267422 140.0
56.597191278 109.0
56.602115134 84.0
56.607038990 126.0
56.611962846 133.0
56.616886702 99.0
56.621810558 115.0
56.626734414 107.0
56.631658270 118.0
56.636582126 118.0
56.641505982 96.0
56.646429838 108.0
56.651353694 116.0
56.656277550 111.0
56.661201406 118.0
56.666125262 100.0
56.671049119 105.0
56.675972975 87.0
56.680896831 117.0
56.685820687 116.0
56.690744543 102.0
56.695668399 134.0
56.700592255 99.0
56.705516111 101.0
56.710439967 121.0
56.715363823 126.0
56.720287679 120.0
56.725211535 111.0
56.730135391 119.0
56.735059247 122.0
56.739983103 119.0
56.744906959 109.0
56.749830815 115.0
56.754754671 116.0
56.759678527 117.0
56.764602383 112.0
56.769526239 125.0
56.774450095 79.0
56.779373951 124.0
56.784297807 111.0
56.789221663 122.0
56.794145519 115.0
56.799069375 103.0
56.803993231 134.0
56.808917087 128.0
56.813840943 128.0
56.818764799 131.0
56.823688655 112.0
56.828612511 104.0
56.833536367 107.0
56.838460223 97.0
56.843384079 115.0
56.848307935 136.0
56.853231791 105.0
56.858155647 140.0
56.863079503 118.0
56.868003359 104.0
56.872927215 133.0
56.877851071 111.0
56.882774927 114.0
56.887698783 117.0
56.892622639 114.0
56.897546495 130.0
56.902470351 119.0
56.907394207 116.0
56.912318063 100.0
56.917241919 119.0
56.922165775 108.0
56.927089631 128.0
56.932013487 116.0
56.936937343 127.0
56.941861199 128.0
56.946785055 115.0
56.951708911 132.0
56.956632767 112.0
56.961556623 115.0
56.966480479 112.0
56.971404335 119.0
56.976328191 124.0
56.981252047 113.0
56.986175903 123.0
56.991099759 113.0
56.996023615 118.0
57.000947471 110.0
57.005871327 105.0
57.010795183 110.0
57.015719039 110.0
57.020642895 111.0
57.025566751 100.0
57.030490607 128.0
57.035414463 107.0
57.040338320 113.0
57.045262176 96.0
57.050186032 138.0
57.055109888 105.0
57.060033744 114.0
57.064957600 116.0
57.069881456 106.0
57.074805312 130.0
57.079729168 135.0
57.084653024 115.0
57.089576880 119.0
57.094500736 136.0
57.099424592 93.0
57.104348448 104.0
57.109272304 117.0
57.114196160 102.0
57.119120016 116.0
57.124043872 116.0
57.128967728 127.0
57.133891584 108.0
57.138815440 118.0
57.143739296 123.0
57.148663152 122.0
57.153587008 130.0
57.158510864 95.0
57.163434720 89.0
57.168358576 119.0
57.173282432 113.0
57.178206288 100.0
57.183130144 109.0
57.188054000 107.0
57.192977856 116.0
57.197901712 116.0
57.202825568 99.0
57.207749424 115.0
57.212673280 116.0
57.217597136 126.0
57.222520992 134.0
57.227444848 129.0
57.232368704 115.0
57.237292560 130.0
57.242216416 111.0
57.247140272 117.0
57.252064128 140.0
57.256987984 128.0
57.261911840 108.0
57.266835696 116.0
57.271759552 129.0
57.276683408 118.0
57.281607264 113.0
57.286531120 115.0
57.291454976 118.0
57.296378832 95.0
57.301302688 119.0
57.306226544 114.0
57.311150400 103.0
57.316074256 104.0
57.320998112 121.0
57.325921968 122.0
57.330845824 133.0
57.335769680 103.0
57.340693536 124.0
57.345617392 124.0
57.350541248 133.0
57.355465104 112.0
57.360388960 120.0
57.365312816 140.0
57.370236672 97.0
57.375160528 111.0
57.380084384 118.0
57.385008240 129.0
57.389932096 115.0
57.394855952 136.0
57.399779808 117.0
57.404703664 124.0
57.409627521 110.0
57.414551377 121.0
57.419475233 113.0
57.424399089 125.0
57.429322945 109.0
57.434246801 127.0
57.439170657 113.0
57.444094513 110.0
57.449018369 125.0
57.453942225 117.0
57.458866081 117.0
57.463789937 129.0
57.468713793 131.0
57.473637649 129.0
57.478561505 117.0
57.483485361 119.0
57.488409217 125.0
57.493333073 114.0
57.498256929 123.0
57.503180785 126.0
57.508104641 119.0
57.513028497 98.0
57.517952353 123.0
57.522876209 105.0
57.527800065 115.0
57.532723921 119.0
57.537647777 120.0
57.542571633 106.0
57.547495489 108.0
57.552419345 135.0
57.557343201 122.0
57.562267057 108.0
57.567190913 129.0
57.572114769 110.0
57.577038625 110.0
57.581962481 130.0
57.586886337 121.0
57.591810193 117.0
57.596734049 126.0
57.601657905 122.0
57.606581761 122.0
57.611505617 153.0
57.616429473 130.0
57.621353329 123.0
57.626277185 133.0
57.631201041 124.0
57.636124897 120.0
57.641048753 122.0
57.645972609 135.0
57.650896465 120.0
57.655820321 122.0
57.660744177 137.0
57.665668033 136.0
57.670591889 128.0
57.675515745 126.0
57.680439601 131.0
57.685363457 126.0
57.690287313 122.0
57.695211169 146.0
57.700135025 121.0
57.705058881 107.0
57.709982737 130.0
57.714906593 145.0
57.719830449 125.0
57.724754305 135.0
57.729678161 117.0
57.734602017 121.0
57.739525873 131.0
57.744449729 120.0
57.749373585 113.0
57.754297441 137.0
57.759221297 125.0
57.764145153 130.0
57.769069009 109.0
57.773992865 119.0
57.778916721 116.0
57.783840578 115.0
57.788764434 126.0
57.793688290 131.0
57.798612146 132.0
57.803536002 109.0
57.808459858 118.0
57.813383714 130.0
57.818307570 126.0
57.823231426 127.0
57.828155282 129.0
57.833079138 107.0
57.838002994 146.0
57.842926850 113.0
57.847850706 120.0
57.852774562 133.0
57.857698418 132.0
57.862622274 126.0
57.867546130 121.0
57.872469986 99.0
57.877393842 124.0
57.882317698 115.0
57.887241554 137.0
57.892165410 139.0
57.897089266 109.0
57.902013122 112.0
57.906936978 105.0
57.911860834 113.0
57.916784690 114.0
57.921708546 108.0
57.926632402 110.0
57.931556258 130.0
57.936480114 135.0
57.941403970 118.0
57.946327826 110.0
57.951251682 125.0
57.956175538 121.0
57.961099394 125.0
57.966023250 122.0
57.970947106 129.0
57.975870962 117.0
57.980794818 122.0
57.985718674 112.0
57.990642530 126.0
57.995566386 122.0
58.000490242 110.0
58.005414098 116.0
58.010337954 123.0
58.015261810 122.0
58.020185666 112.0
58.025109522 131.0
58.030033378 115.0
58.034957234 115.0
58.039881090 118.0
58.044804946 127.0
58.049728802 131.0
58.054652658 125.0
58.059576514 116.0
58.064500370 107.0
58.069424226 117.0
58.074348082 128.0
58.079271938 137.0
58.084195794 124.0
58.089119650 117.0
58.094043506 116.0
58.098967362 131.0
58.103891218 136.0
58.108815074 110.0
58.113738930 120.0
58.118662786 120.0
58.123586642 114.0
58.128510498 113.0
58.133434354 123.0
58.138358210 112.0
58.143282066 120.0
58.148205922 148.0
58.153129779 124.0
58.158053635 108.0
58.162977491 120.0
58.167901347 125.0
58.172825203 112.0
58.177749059 130.0
58.182672915 108.0
58.187596771 121.0
58.192520627 112.0
58.197444483 123.0
58.202368339 121.0
58.207292195 146.0
58.212216051 128.0
58.217139907 128.0
58.222063763 92.0
58.226987619 120.0
58.231911475 126.0
58.236835331 131.0
58.241759187 123.0
58.246683043 122.0
58.251606899 114.0
58.256530755 114.0
58.261454611 99.0
58.266378467 113.0
58.271302323 124.0
58.276226179 113.0
58.281150035 120.0
58.286073891 125.0
58.290997747 129.0
58.295921603 91.0
58.300845459 118.0
58.305769315 105.0
58.310693171 131.0
58.315617027 96.0
58.320540883 106.0
58.325464739 119.0
58.330388595 132.0
58.335312451 112.0
58.340236307 115.0
58.345160163 114.0
58.350084019 118.0
58.355007875 134.0
58.359931731 135.0
58.364855587 111.0
58.369779443 134.0
58.374703299 122.0
58.379627155 113.0
58.384551011 109.0
58.389474867 99.0
58.394398723 104.0
58.399322579 132.0
58.404246435 116.0
58.409170291 129.0
58.414094147 131.0
58.419018003 106.0
58.423941859 142.0
58.428865715 121.0
58.433789571 111.0
58.438713427 127.0
58.443637283 131.0
58.448561139 112.0
58.453484995 115.0
58.458408851 103.0
58.463332707 120.0
58.468256563 124.0
58.473180419 113.0
58.478104275 110.0
58.483028131 126.0
58.487951987 104.0
58.492875843 105.0
58.497799699 112.0
58.502723555 110.0
58.507647411 116.0
58.512571267 119.0
58.517495123 111.0
58.522418980 119.0
58.527342836 120.0
58.532266692 114.0
58.537190548 117.0
58.542114404 109.0
58.547038260 118.0
58.551962116 128.0
58.556885972 116.0
58.561809828 133.0
58.566733684 132.0
58.571657540 117.0
58.576581396 108.0
58.581505252 86.0
58.586429108 139.0
58.591352964 115.0
58.596276820 129.0
58.601200676 136.0
58.606124532 105.0
58.611048388 107.0
58.615972244 128.0
58.620896100 124.0
58.625819956 132.0
58.630743812 124.0
58.635667668 121.0
58.640591524 127.0
58.645515380 124.0
58.650439236 126.0
58.655363092 120.0
58.660286948 123.0
58.665210804 126.0
58.670134660 119.0
58.675058516 112.0
58.679982372 107.0
58.684906228 94.0
58.689830084 103.0
58.694753940 96.0
58.699677796 111.0
58.704601652 115.0
58.709525508 118.0
58.714449364 123.0
58.719373220 125.0
58.724297076 105.0
58.729220932 127.0
58.734144788 126.0
58.739068644 113.0
58.743992500 145.0
58.748916356 122.0
58.753840212 96.0
58.758764068 119.0
58.763687924 133.0
58.768611780 121.0
58.773535636 125.0
58.778459492 113.0
58.783383348 110.0
58.788307204 117.0
58.793231060 125.0
58.798154916 126.0
58.803078772 108.0
58.808002628 131.0
58.812926484 122.0
58.817850340 115.0
58.822774196 115.0
58.827698052 137.0
58.832621908 120.0
58.837545764 100.0
58.842469620 112.0
58.847393476 133.0
58.852317332 128.0
58.857241188 122.0
58.862165044 117.0
58.867088900 114.0
58.872012756 127.0
58.876936612 127.0
58.881860468 106.0
58.886784324 112.0
58.891708181 116.0
58.896632037 99.0
58.901555893 119.0
58.906479749 119.0
58.911403605 126.0
58.916327461 140.0
58.921251317 126.0
58.926175173 135.0
58.931099029 113.0
58.936022885 127.0
58.940946741 115.0
58.945870597 119.0
58.950794453 128.0
58.955718309 121.0
58.960642165 133.0
58.965566021 114.0
58.970489877 115.0
58.975413733 118.0
58.980337589 142.0
58.985261445 106.0
58.990185301 131.0
58.995109157 132.0
59.000033013 92.0
59.004956869 122.0
59.009880725 120.0
59.014804581 135.0
59.019728437 124.0
59.024652293 113.0
59.029576149 121.0
59.034500005 104.0
59.039423861 119.0
59.044347717 116.0
59.049271573 108.0
59.054195429 131.0
59.059119285 131.0
59.064043141 125.0
59.068966997 106.0
59.073890853 122.0
59.078814709 119.0
59.083738565 98.0
59.088662421 131.0
59.093586277 113.0
59.098510133 126.0
59.103433989 104.0
59.108357845 106.0
59.113281701 97.0
59.118205557 120.0
59.123129413 133.0
59.128053269 118.0
59.132977125 117.0
59.137900981 123.0
59.142824837 116.0
59.147748693 123.0
59.152672549 131.0
59.157596405 130.0
59.162520261 110.0
59.167444117 115.0
59.172367973 107.0
59.177291829 112.0
59.182215685 133.0
59.187139541 104.0
59.192063397 120.0
59.196987253 128.0
59.201911109 119.0
59.206834965 106.0
59.211758821 133.0
59.216682677 136.0
59.221606533 136.0
59.226530389 88.0
59.231454245 117.0
59.236378101 121.0
59.241301957 133.0
59.246225813 111.0
59.251149669 127.0
59.256073525 112.0
59.260997382 116.0
59.265921238 120.0
59.270845094 108.0
59.275768950 96.0
59.280692806 108.0
59.285616662 129.0
59.290540518 124.0
59.295464374 119.0
59.300388230 118.0
59.305312086 116.0
59.310235942 117.0
59.315159798 108.0
59.320083654 128.0
59.325007510 114.0
59.329931366 125.0
59.334855222 142.0
59.339779078 117.0
59.344702934 109.0
59.349626790 111.0
59.354550646 135.0
59.359474502 126.0
59.364398358 121.0
59.369322214 115.0
59.374246070 111.0
59.379169926 123.0
59.384093782 129.0
59.389017638 136.0
59.393941494 118.0
59.398865350 135.0
59.403789206 121.0
59.408713062 117.0
59.413636918 108.0
59.418560774 120.0
59.423484630 116.0
59.428408486 113.0
59.433332342 117.0
59.438256198 103.0
59.443180054 112.0
59.448103910 99.0
59.453027766 123.0
59.457951622 131.0
59.462875478 129.0
59.467799334 122.0
59.472723190 104.0
59.477647046 110.0
59.482570902 117.0
59.487494758 120.0
59.492418614 120.0
59.497342470 136.0
59.502266326 129.0
59.507190182 134.0
59.512114038 137.0
59.517037894 123.0
59.521961750 125.0
59.526885606 119.0
59.531809462 128.0
59.536733318 103.0
59.541657174 126.0
59.546581030 121.0
59.551504886 107.0
59.556428742 129.0
59.561352598 113.0
59.566276454 117.0
59.571200310 131.0
59.576124166 139.0
59.581048022 124.0
59.585971878 127.0
59.590895734 116.0
59.595819590 124.0
59.600743446 110.0
59.605667302 122.0
59.610591158 119.0
59.615515014 145.0
59.620438870 118.0
59.625362726 108.0
59.630286582 129.0
59.635210439 124.0
59.640134295 121.0
59.645058151 127.0
59.649982007 128.0
59.654905863 139.0
59.659829719 138.0
59.664753575 119.0
59.669677431 122.0
59.674601287 116.0
59.679525143 139.0
59.684448999 121.0
59.689372855 122.0
59.694296711 113.0
59.699220567 120.0
59.704144423 106.0
59.709068279 111.0
59.713992135 123.0
59.718915991 112.0
59.723839847 101.0
59.728763703 141.0
59.733687559 104.0
59.738611415 125.0
59.743535271 120.0
59.748459127 112.0
59.753382983 124.0
59.758306839 107.0
59.763230695 137.0
59.768154551 124.0
59.773078407 111.0
59.778002263 109.0
59.782926119 128.0
59.787849975 136.0
59.792773831 123.0
59.797697687 122.0
59.802621543 111.0
59.807545399 112.0
59.812469255 138.0
59.817393111 109.0
59.822316967 119.0
59.827240823 127.0
59.832164679 116.0
59.837088535 120.0
59.842012391 126.0
59.846936247 121.0
59.851860103 112.0
59.856783959 121.0
59.861707815 122.0
59.866631671 117.0
59.871555527 127.0
59.876479383 110.0
59.881403239 119.0
59.886327095 126.0
59.891250951 110.0
59.896174807 97.0
59.901098663 146.0
59.906022519 110.0
59.910946375 113.0
59.915870231 128.0
59.920794087 122.0
59.925717943 131.0
59.930641799 117.0
59.935565655 143.0
59.940489511 142.0
59.945413367 111.0
59.950337223 135.0
59.955261079 136.0
59.960184935 94.0
59.965108791 125.0
59.970032647 134.0
59.974956503 118.0
59.979880359 120.0
59.984804215 126.0
59.989728071 130.0
59.994651927 121.0
59.999575783 102.0
60.004499640 113.0
60.009423496 120.0
60.014347352 120.0
60.019271208 123.0
60.024195064 124.0
60.029118920 121.0
60.034042776 107.0
60.038966632 115.0
60.043890488 119.0
60.048814344 110.0
60.053738200 139.0
60.058662056 110.0
60.063585912 122.0
60.068509768 105.0
60.073433624 140.0
60.078357480 138.0
60.083281336 103.0
60.088205192 118.0
60.093129048 112.0
60.098052904 107.0
60.102976760 126.0
60.107900616 107.0
60.112824472 128.0
60.117748328 127.0
60.122672184 134.0
60.127596040 101.0
60.132519896 130.0
60.137443752 111.0
60.142367608 126.0
60.147291464 138.0
60.152215320 132.0
60.157139176 124.0
60.162063032 116.0
60.166986888 117.0
60.171910744 115.0
60.176834600 121.0
60.181758456 125.0
60.186682312 112.0
60.191606168 137.0
60.196530024 115.0
60.201453880 119.0
60.206377736 122.0
60.211301592 127.0
60.216225448 137.0
60.221149304 138.0
60.226073160 120.0
60.230997016 132.0
60.235920872 146.0
60.240844728 125.0
60.245768584 130.0
60.250692440 101.0
60.255616296 124.0
60.260540152 115.0
60.265464008 126.0
60.270387864 148.0
60.275311720 147.0
60.280235576 122.0
60.285159432 130.0
60.290083288 144.0
60.295007144 126.0
60.299931000 142.0
60.304854856 119.0
60.309778712 139.0
60.314702568 148.0
60.319626424 140.0
60.324550280 125.0
60.329474136 142.0
60.334397992 142.0
60.339321848 155.0
60.344245704 149.0
60.349169560 152.0
60.354093416 139.0
60.359017272 115.0
60.363941128 123.0
60.368864984 144.0
60.373788841 139.0
60.378712697 139.0
60.383636553 122.0
60.388560409 120.0
60.393484265 130.0
60.398408121 115.0
60.403331977 125.0
60.408255833 121.0
60.413179689 130.0
60.418103545 146.0
60.423027401 144.0
60.427951257 120.0
60.432875113 137.0
60.437798969 125.0
60.442722825 140.0
60.447646681 145.0
60.452570537 153.0
60.457494393 117.0
60.462418249 135.0
60.467342105 130.0
60.472265961 137.0
60.477189817 133.0
60.482113673 123.0
60.487037529 138.0
60.491961385 137.0
60.496885241 129.0
60.501809097 124.0
60.506732953 135.0
60.511656809 131.0
60.516580665 141.0
60.521504521 136.0
60.526428377 125.0
60.531352233 130.0
60.536276089 122.0
60.541199945 112.0
60.546123801 127.0
60.551047657 131.0
60.555971513 141.0
60.560895369 148.0
60.565819225 174.0
60.570743081 146.0
60.575666937 137.0
60.580590793 127.0
60.585514649 130.0
60.590438505 127.0
60.595362361 149.0
60.600286217 128.0
60.605210073 151.0
60.610133929 126.0
60.615057785 155.0
60.619981641 125.0
60.624905497 135.0
60.629829353 136.0
60.634753209 145.0
60.639677065 148.0
60.644600921 133.0
60.649524777 147.0
60.654448633 151.0
60.659372489 157.0
60.664296345 132.0
60.669220201 134.0
60.674144057 170.0
60.679067913 161.0
60.683991769 150.0
60.688915625 144.0
60.693839481 153.0
60.698763337 149.0
60.703687193 149.0
60.708611049 165.0
60.713534905 158.0
60.718458761 174.0
60.723382617 178.0
60.728306473 185.0
60.733230329 194.0
60.738154185 187.0
60.743078042 202.0
60.748001898 220.0
60.752925754 230.0
60.757849610 217.0
60.762773466 259.0
60.767697322 331.0
60.772621178 348.0
60.777545034 370.0
60.782468890 383.0
60.787392746 475.0
60.792316602 524.0
60.797240458 603.0
60.802164314 700.0
60.807088170 788.0
60.812012026 910.0
60.816935882 1053.0
60.821859738 1133.0
60.826783594 1131.0
60.831707450 1287.0
60.836631306 1311.0
60.841555162 1313.0
60.846479018 1393.0
60.851402874 1273.0
60.856326730 1279.0
60.861250586 1255.0
60.866174442 1146.0
60.871098298 1020.0
60.876022154 1017.0
60.880946010 963.0
60.885869866 829.0
60.890793722 775.0
60.895717578 727.0
60.900641434 652.0
60.905565290 632.0
60.910489146 662.0
60.915413002 662.0
60.920336858 616.0
60.925260714 602.0
60.930184570 532.0
60.935108426 560.0
60.940032282 497.0
60.944956138 469.0
60.949879994 428.0
60.954803850 431.0
60.959727706 364.0
60.964651562 344.0
60.969575418 299.0
60.974499274 271.0
60.979423130 226.0
60.984346986 281.0
60.989270842 263.0
60.994194698 263.0
60.999118554 197.0
61.004042410 221.0
61.008966266 214.0
61.013890122 191.0
61.018813978 176.0
61.023737834 201.0
61.028661690 182.0
61.033585546 187.0
61.038509402 178.0
61.043433258 176.0
61.048357114 184.0
61.053280970 166.0
61.058204826 177.0
61.063128682 149.0
61.068052538 161.0
61.072976394 160.0
61.077900250 147.0
61.082824106 163.0
61.087747962 166.0
61.092671818 164.0
61.097595674 154.0
61.102519530 164.0
61.107443386 159.0
61.112367243 136.0
61.117291099 145.0
61.122214955 178.0
61.127138811 156.0
61.132062667 149.0
61.136986523 166.0
61.141910379 160.0
61.146834235 162.0
61.151758091 145.0
61.156681947 146.0
61.161605803 174.0
61.166529659 145.0
61.171453515 156.0
61.176377371 144.0
61.181301227 147.0
61.186225083 146.0
61.191148939 155.0
61.196072795 155.0
61.200996651 145.0
61.205920507 152.0
61.210844363 140.0
61.215768219 153.0
61.220692075 138.0
61.225615931 143.0
61.230539787 150.0
61.235463643 151.0
61.240387499 139.0
61.245311355 152.0
61.250235211 142.0
61.255159067 133.0
61.260082923 123.0
61.265006779 137.0
61.269930635 153.0
61.274854491 150.0
61.279778347 145.0
61.284702203 138.0
61.289626059 151.0
61.294549915 131.0
61.299473771 130.0
61.304397627 141.0
61.309321483 151.0
61.314245339 144.0
61.319169195 152.0
61.324093051 136.0
61.329016907 140.0
61.333940763 147.0
61.338864619 150.0
61.343788475 151.0
61.348712331 149.0
61.353636187 137.0
61.358560043 146.0
61.363483899 142.0
61.368407755 144.0
61.373331611 133.0
61.378255467 150.0
61.383179323 141.0
61.388103179 131.0
61.393027035 143.0
61.397950891 144.0
61.402874747 177.0
61.407798603 153.0
61.412722459 144.0
61.417646315 126.0
61.422570171 137.0
61.427494027 124.0
61.432417883 151.0
61.437341739 135.0
61.442265595 141.0
61.447189451 151.0
61.452113307 142.0
61.457037163 140.0
61.461961019 112.0
61.466884875 109.0
61.471808731 164.0
61.476732587 165.0
61.481656443 150.0
61.486580300 124.0
61.491504156 133.0
61.496428012 152.0
61.501351868 126.0
61.506275724 138.0
61.511199580 138.0
61.516123436 128.0
61.521047292 129.0
61.525971148 131.0
61.530895004 141.0
61.535818860 132.0
61.540742716 133.0
61.545666572 135.0
61.550590428 142.0
61.555514284 136.0
61.560438140 123.0
61.565361996 140.0
61.570285852 143.0
61.575209708 131.0
61.580133564 132.0
61.585057420 133.0
61.589981276 135.0
61.594905132 126.0
61.599828988 119.0
61.604752844 131.0
61.609676700 147.0
61.614600556 140.0
61.619524412 123.0
61.624448268 142.0
61.629372124 136.0
61.634295980 122.0
61.639219836 130.0
61.644143692 120.0
61.649067548 163.0
61.653991404 124.0
61.658915260 148.0
61.663839116 125.0
61.668762972 154.0
61.673686828 142.0
61.678610684 130.0
61.683534540 143.0
61.688458396 143.0
61.693382252 135.0
61.698306108 131.0
61.703229964 124.0
61.708153820 125.0
61.713077676 128.0
61.718001532 125.0
61.722925388 145.0
61.727849244 131.0
61.732773100 125.0
61.737696956 147.0
61.742620812 115.0
61.747544668 133.0
61.752468524 122.0
61.757392380 139.0
61.762316236 129.0
61.767240092 111.0
61.772163948 131.0
61.777087804 140.0
61.782011660 126.0
61.786935516 141.0
61.791859372 142.0
61.796783228 131.0
61.801707084 136.0
61.806630940 142.0
61.811554796 142.0
61.816478652 146.0
61.821402508 145.0
61.826326364 139.0
61.831250220 156.0
61.836174076 129.0
61.841097932 148.0
61.846021788 124.0
61.850945644 159.0
61.855869501 126.0
61.860793357 130.0
61.865717213 143.0
61.870641069 132.0
61.875564925 130.0
61.880488781 115.0
61.885412637 129.0
61.890336493 128.0
61.895260349 142.0
61.900184205 129.0
61.905108061 160.0
61.910031917 135.0
61.914955773 136.0
61.919879629 145.0
61.924803485 137.0
61.929727341 139.0
61.934651197 163.0
61.939575053 133.0
61.944498909 138.0
61.949422765 140.0
61.954346621 134.0
61.959270477 147.0
61.964194333 128.0
61.969118189 131.0
61.974042045 159.0
61.978965901 133.0
61.983889757 144.0
61.988813613 124.0
61.993737469 141.0
61.998661325 133.0
62.003585181 146.0
62.008509037 130.0
62.013432893 134.0
62.018356749 162.0
62.023280605 150.0
62.028204461 134.0
62.033128317 103.0
62.038052173 153.0
62.042976029 131.0
62.047899885 134.0
62.052823741 130.0
62.057747597 131.0
62.062671453 153.0
62.067595309 146.0
62.072519165 133.0
62.077443021 154.0
62.082366877 153.0
62.087290733 116.0
62.092214589 128.0
62.097138445 148.0
62.102062301 145.0
62.106986157 145.0
62.111910013 156.0
62.116833869 151.0
62.121757725 137.0
62.126681581 140.0
62.131605437 128.0
62.136529293 153.0
62.141453149 150.0
62.146377005 135.0
62.151300861 143.0
62.156224717 146.0
62.161148573 156.0
62.166072429 156.0
62.170996285 152.0
62.175920141 178.0
62.180843997 142.0
62.185767853 133.0
62.190691709 157.0
62.195615565 133.0
62.200539421 132.0
62.205463277 125.0
62.210387133 163.0
62.215310989 166.0
62.220234845 131.0
62.225158702 160.0
62.230082558 133.0
62.235006414 123.0
62.239930270 139.0
62.244854126 145.0
62.249777982 144.0
62.254701838 145.0
62.259625694 146.0
62.264549550 156.0
62.269473406 143.0
62.274397262 166.0
62.279321118 136.0
62.284244974 129.0
62.289168830 134.0
62.294092686 142.0
62.299016542 130.0
62.303940398 158.0
62.308864254 132.0
62.313788110 132.0
62.318711966 137.0
62.323635822 151.0
62.328559678 155.0
62.333483534 149.0
62.338407390 136.0
62.343331246 155.0
62.348255102 147.0
62.353178958 136.0
62.358102814 125.0
62.363026670 153.0
62.367950526 134.0
62.372874382 142.0
62.377798238 133.0
62.382722094 153.0
62.387645950 143.0
62.392569806 146.0
62.397493662 159.0
62.402417518 143.0
62.407341374 142.0
62.412265230 153.0
62.417189086 162.0
62.422112942 143.0
62.427036798 152.0
62.431960654 147.0
62.436884510 158.0
62.441808366 155.0
62.446732222 144.0
62.451656078 143.0
62.456579934 140.0
62.461503790 167.0
62.466427646 152.0
62.471351502 163.0
62.476275358 164.0
62.481199214 132.0
62.486123070 156.0
62.491046926 129.0
62.495970782 148.0
62.500894638 131.0
62.505818494 146.0
62.510742350 158.0
62.515666206 131.0
62.520590062 135.0
62.525513918 173.0
62.530437774 136.0
62.535361630 157.0
62.540285486 140.0
62.545209342 143.0
62.550133198 157.0
62.555057054 156.0
62.559980910 166.0
62.564904766 172.0
62.569828622 149.0
62.574752478 162.0
62.579676334 151.0
62.584600190 151.0
62.589524046 147.0
62.594447903 157.0
62.599371759 136.0
62.604295615 153.0
62.609219471 191.0
62.614143327 133.0
62.619067183 152.0
62.623991039 160.0
62.628914895 175.0
62.633838751 155.0
62.638762607 155.0
62.643686463 161.0
62.648610319 161.0
62.653534175 130.0
62.658458031 135.0
62.663381887 158.0
62.668305743 163.0
62.673229599 155.0
62.678153455 150.0
62.683077311 167.0
62.688001167 132.0
62.692925023 167.0
62.697848879 159.0
62.702772735 174.0
62.707696591 166.0
62.712620447 174.0
62.717544303 147.0
62.722468159 156.0
62.727392015 160.0
62.732315871 163.0
62.737239727 156.0
62.742163583 166.0
62.747087439 144.0
62.752011295 152.0
62.756935151 157.0
62.761859007 177.0
62.766782863 148.0
62.771706719 159.0
62.776630575 153.0
62.781554431 139.0
62.786478287 170.0
62.791402143 146.0
62.796325999 145.0
62.801249855 162.0
62.806173711 150.0
62.811097567 177.0
62.816021423 143.0
62.820945279 150.0
62.825869135 156.0
62.830792991 159.0
62.835716847 135.0
62.840640703 167.0
62.845564559 191.0
62.850488415 151.0
62.855412271 159.0
62.860336127 156.0
62.865259983 197.0
62.870183839 136.0
62.875107695 183.0
62.880031551 142.0
62.884955407 196.0
62.889879263 185.0
62.894803119 169.0
62.899726975 145.0
62.904650831 156.0
62.909574687 169.0
62.914498543 153.0
62.919422399 157.0
62.924346255 165.0
62.929270111 165.0
62.934193967 164.0
62.939117823 154.0
62.944041679 196.0
62.948965535 163.0
62.953889391 165.0
62.958813247 160.0
62.963737104 174.0
62.968660960 176.0
62.973584816 154.0
62.978508672 162.0
62.983432528 161.0
62.988356384 172.0
62.993280240 147.0
62.998204096 163.0
63.003127952 154.0
63.008051808 155.0
63.012975664 170.0
63.017899520 156.0
63.022823376 172.0
63.027747232 158.0
63.032671088 154.0
63.037594944 169.0
63.042518800 167.0
63.047442656 186.0
63.052366512 173.0
63.057290368 167.0
63.062214224 189.0
63.067138080 177.0
63.072061936 173.0
63.076985792 174.0
63.081909648 158.0
63.086833504 173.0
63.091757360 185.0
63.096681216 187.0
63.101605072 169.0
63.106528928 172.0
63.111452784 195.0
63.116376640 186.0
63.121300496 165.0
63.126224352 163.0
63.131148208 181.0
63.136072064 172.0
63.140995920 166.0
63.145919776 162.0
63.150843632 183.0
63.155767488 180.0
63.160691344 181.0
63.165615200 203.0
63.170539056 172.0
63.175462912 165.0
63.180386768 174.0
63.185310624 192.0
63.190234480 187.0
63.195158336 183.0
63.200082192 161.0
63.205006048 169.0
63.209929904 193.0
63.214853760 189.0
63.219777616 184.0
63.224701472 170.0
63.229625328 183.0
63.234549184 172.0
63.239473040 208.0
63.244396896 172.0
63.249320752 175.0
63.254244608 183.0
63.259168464 175.0
63.264092320 182.0
63.269016176 189.0
63.273940032 222.0
63.278863888 185.0
63.283787744 201.0
63.288711600 167.0
63.293635456 211.0
63.298559312 190.0
63.303483168 179.0
63.308407024 179.0
63.313330880 206.0
63.318254736 180.0
63.323178592 203.0
63.328102448 188.0
63.333026304 194.0
63.337950161 193.0
63.342874017 167.0
63.347797873 200.0
63.352721729 177.0
63.357645585 189.0
63.362569441 195.0
63.367493297 185.0
63.372417153 220.0
63.377341009 188.0
63.382264865 213.0
63.387188721 184.0
63.392112577 199.0
63.397036433 210.0
63.401960289 189.0
63.406884145 187.0
63.411808001 219.0
63.416731857 177.0
63.421655713 202.0
63.426579569 214.0
63.431503425 198.0
63.436427281 213.0
63.441351137 206.0
63.446274993 201.0
63.451198849 201.0
63.456122705 206.0
63.461046561 223.0
63.465970417 209.0
63.470894273 201.0
63.475818129 208.0
63.480741985 201.0
63.485665841 217.0
63.490589697 215.0
63.495513553 216.0
63.500437409 210.0
63.505361265 241.0
63.510285121 226.0
63.515208977 214.0
63.520132833 216.0
63.525056689 216.0
63.529980545 224.0
63.534904401 227.0
63.539828257 230.0
63.544752113 240.0
63.549675969 229.0
63.554599825 215.0
63.559523681 183.0
63.564447537 227.0
63.569371393 246.0
63.574295249 246.0
63.579219105 203.0
63.584142961 234.0
63.589066817 236.0
63.593990673 233.0
63.598914529 245.0
63.603838385 211.0
63.608762241 228.0
63.613686097 212.0
63.618609953 221.0
63.623533809 224.0
63.628457665 239.0
63.633381521 225.0
63.638305377 232.0
63.643229233 234.0
63.648153089 266.0
63.653076945 256.0
63.658000801 242.0
63.662924657 223.0
63.667848513 279.0
63.672772369 279.0
63.677696225 234.0
63.682620081 266.0
63.687543937 294.0
63.692467793 237.0
63.697391649 283.0
63.702315505 270.0
63.707239362 270.0
63.712163218 271.0
63.717087074 278.0
63.722010930 278.0
63.726934786 283.0
63.731858642 276.0
63.736782498 285.0
63.741706354 279.0
63.746630210 269.0
63.751554066 276.0
63.756477922 295.0
63.761401778 287.0
63.766325634 300.0
63.771249490 289.0
63.776173346 278.0
63.781097202 302.0
63.786021058 303.0
63.790944914 304.0
63.795868770 324.0
63.800792626 302.0
63.805716482 347.0
63.810640338 332.0
63.815564194 287.0
63.820488050 304.0
63.825411906 350.0
63.830335762 326.0
63.835259618 324.0
63.840183474 319.0
63.845107330 331.0
63.850031186 351.0
63.854955042 325.0
63.859878898 364.0
63.864802754 338.0
63.869726610 361.0
63.874650466 347.0
63.879574322 373.0
63.884498178 357.0
63.889422034 387.0
63.894345890 365.0
63.899269746 369.0
63.904193602 375.0
63.909117458 421.0
63.914041314 404.0
63.918965170 384.0
63.923889026 363.0
63.928812882 395.0
63.933736738 399.0
63.938660594 426.0
63.943584450 404.0
63.948508306 433.0
63.953432162 386.0
63.958356018 435.0
63.963279874 440.0
63.968203730 438.0
63.973127586 451.0
63.978051442 471.0
63.982975298 480.0
63.987899154 486.0
63.992823010 491.0
63.997746866 501.0
64.002670722 477.0
64.007594578 504.0
64.012518434 509.0
64.017442290 537.0
64.022366146 516.0
64.027290002 514.0
64.032213858 546.0
64.037137714 562.0
64.042061570 506.0
64.046985426 563.0
64.051909282 557.0
64.056833138 608.0
64.061756994 608.0
64.066680850 625.0
64.071604706 584.0
64.076528563 625.0
64.081452419 609.0
64.086376275 630.0
64.091300131 637.0
64.096223987 666.0
64.101147843 660.0
64.106071699 681.0
64.110995555 728.0
64.115919411 670.0
64.120843267 730.0
64.125767123 725.0
64.130690979 723.0
64.135614835 746.0
64.140538691 736.0
64.145462547 822.0
64.150386403 784.0
64.155310259 794.0
64.160234115 804.0
64.165157971 846.0
64.170081827 823.0
64.175005683 844.0
64.179929539 907.0
64.184853395 883.0
64.189777251 928.0
64.194701107 981.0
64.199624963 962.0
64.204548819 1000.0
64.209472675 989.0
64.214396531 965.0
64.219320387 1000.0
64.224244243 1066.0
64.229168099 1057.0
64.234091955 1082.0
64.239015811 1111.0
64.243939667 1120.0
64.248863523 1193.0
64.253787379 1157.0
64.258711235 1194.0
64.263635091 1255.0
64.268558947 1330.0
64.273482803 1319.0
64.278406659 1334.0
64.283330515 1323.0
64.288254371 1296.0
64.293178227 1399.0
64.298102083 1419.0
64.303025939 1386.0
64.307949795 1382.0
64.312873651 1567.0
64.317797507 1514.0
64.322721363 1526.0
64.327645219 1534.0
64.332569075 1537.0
64.337492931 1614.0
64.342416787 1666.0
64.347340643 1718.0
64.352264499 1757.0
64.357188355 1689.0
64.362112211 1700.0
64.367036067 1693.0
64.371959923 1741.0
64.376883779 1815.0
64.381807635 1793.0
64.386731491 1863.0
64.391655347 1833.0
64.396579203 1838.0
64.401503059 1914.0
64.406426915 1972.0
64.411350771 1916.0
64.416274627 1888.0
64.421198483 1855.0
64.426122339 1985.0
64.431046195 1949.0
64.435970051 1943.0
64.440893907 1980.0
64.445817764 1968.0
64.450741620 1968.0
64.455665476 1931.0
64.460589332 1919.0
64.465513188 1979.0
64.470437044 1988.0
64.475360900 1951.0
64.480284756 1985.0
64.485208612 1916.0
64.490132468 1866.0
64.495056324 1888.0
64.499980180 1930.0
64.504904036 1950.0
64.509827892 1857.0
64.514751748 1869.0
64.519675604 1902.0
64.524599460 1806.0
64.529523316 1820.0
64.534447172 1890.0
64.539371028 1883.0
64.544294884 1847.0
64.549218740 1786.0
64.554142596 1784.0
64.559066452 1796.0
64.563990308 1778.0
64.568914164 1676.0
64.573838020 1770.0
64.578761876 1692.0
64.583685732 1669.0
64.588609588 1692.0
64.593533444 1658.0
64.598457300 1624.0
64.603381156 1655.0
64.608305012 1656.0
64.613228868 1550.0
64.618152724 1564.0
64.623076580 1509.0
64.628000436 1518.0
64.632924292 1558.0
64.637848148 1429.0
64.642772004 1455.0
64.647695860 1428.0
64.652619716 1410.0
64.657543572 1351.0
64.662467428 1426.0
64.667391284 1300.0
64.672315140 1383.0
64.677238996 1257.0
64.682162852 1260.0
64.687086708 1204.0
64.692010564 1241.0
64.696934420 1209.0
64.701858276 1181.0
64.706782132 1153.0
64.711705988 1134.0
64.716629844 1105.0
64.721553700 1071.0
64.726477556 1093.0
64.731401412 1105.0
64.736325268 1040.0
64.741249124 1037.0
64.746172980 1029.0
64.751096836 1030.0
64.756020692 976.0
64.760944548 966.0
64.765868404 866.0
64.770792260 962.0
64.775716116 914.0
64.780639972 882.0
64.785563828 934.0
64.790487684 822.0
64.795411540 848.0
64.800335396 851.0
64.805259252 825.0
64.810183108 793.0
64.815106965 796.0
64.820030821 753.0
64.824954677 729.0
64.829878533 741.0
64.834802389 731.0
64.839726245 745.0
64.844650101 693.0
64.849573957 726.0
64.854497813 699.0
64.859421669 686.0
64.864345525 612.0
64.869269381 650.0
64.874193237 610.0
64.879117093 579.0
64.884040949 616.0
64.888964805 578.0
64.893888661 632.0
64.898812517 607.0
64.903736373 597.0
64.908660229 589.0
64.913584085 614.0
64.918507941 567.0
64.923431797 543.0
64.928355653 570.0
64.933279509 525.0
64.938203365 542.0
64.943127221 555.0
64.948051077 529.0
64.952974933 581.0
64.957898789 494.0
64.962822645 536.0
64.967746501 502.0
64.972670357 506.0
64.977594213 451.0
64.982518069 492.0
64.987441925 521.0
64.992365781 474.0
64.997289637 423.0
65.002213493 435.0
65.007137349 469.0
65.012061205 421.0
65.016985061 434.0
65.021908917 430.0
65.026832773 410.0
65.031756629 449.0
65.036680485 412.0
65.041604341 420.0
65.046528197 404.0
65.051452053 409.0
65.056375909 397.0
65.061299765 369.0
65.066223621 414.0
65.071147477 377.0
65.076071333 387.0
65.080995189 337.0
65.085919045 366.0
65.090842901 350.0
65.095766757 375.0
65.100690613 456.0
65.105614469 341.0
65.110538325 351.0
65.115462181 352.0
65.120386037 329.0
65.125309893 350.0
65.130233749 346.0
65.135157605 328.0
65.140081461 337.0
65.145005317 317.0
65.149929173 321.0
65.154853029 336.0
65.159776885 313.0
65.164700741 331.0
65.169624597 294.0
65.174548453 284.0
65.179472309 332.0
65.184396165 339.0
65.189320022 317.0
65.194243878 305.0
65.199167734 290.0
65.204091590 314.0
65.209015446 308.0
65.213939302 268.0
65.218863158 291.0
65.223787014 286.0
65.228710870 312.0
65.233634726 297.0
65.238558582 266.0
65.243482438 265.0
65.248406294 300.0
65.253330150 274.0
65.258254006 283.0
65.263177862 284.0
65.268101718 296.0
65.273025574 285.0
65.277949430 291.0
65.282873286 313.0
65.287797142 273.0
65.292720998 285.0
65.297644854 281.0
65.302568710 257.0
65.307492566 232.0
65.312416422 262.0
65.317340278 256.0
65.322264134 221.0
65.327187990 286.0
65.332111846 243.0
65.337035702 257.0
65.341959558 242.0
65.346883414 237.0
65.351807270 265.0
65.356731126 220.0
65.361654982 226.0
65.366578838 221.0
65.371502694 240.0
65.376426550 238.0
65.381350406 232.0
65.386274262 258.0
65.391198118 240.0
65.396121974 234.0
65.401045830 279.0
65.405969686 239.0
65.410893542 220.0
65.415817398 232.0
65.420741254 281.0
65.425665110 245.0
65.430588966 218.0
65.435512822 241.0
65.440436678 224.0
65.445360534 223.0
65.450284390 225.0
65.455208246 237.0
65.460132102 230.0
65.465055958 244.0
65.469979814 220.0
65.474903670 229.0
65.479827526 269.0
65.484751382 229.0
65.489675238 218.0
65.494599094 213.0
65.499522950 217.0
65.504446806 206.0
65.509370662 208.0
65.514294518 239.0
65.519218374 237.0
65.524142230 218.0
65.529066086 240.0
65.533989942 223.0
65.538913798 200.0
65.543837654 230.0
65.548761510 230.0
65.553685366 218.0
65.558609223 205.0
65.563533079 255.0
65.568456935 224.0
65.573380791 225.0
65.578304647 215.0
65.583228503 184.0
65.588152359 226.0
65.593076215 192.0
65.598000071 226.0
65.602923927 259.0
65.607847783 217.0
65.612771639 194.0
65.617695495 209.0
65.622619351 214.0
65.627543207 223.0
65.632467063 220.0
65.637390919 222.0
65.642314775 224.0
65.647238631 233.0
65.652162487 227.0
65.657086343 211.0
65.662010199 241.0
65.666934055 209.0
65.671857911 211.0
65.676781767 214.0
65.681705623 231.0
65.686629479 193.0
65.691553335 195.0
65.696477191 223.0
65.701401047 243.0
65.706324903 208.0
65.711248759 191.0
65.716172615 181.0
65.721096471 214.0
65.726020327 220.0
65.730944183 196.0
65.735868039 181.0
65.740791895 218.0
65.745715751 228.0
65.750639607 188.0
65.755563463 216.0
65.760487319 223.0
65.765411175 229.0
65.770335031 211.0
65.775258887 203.0
65.780182743 192.0
65.785106599 213.0
65.790030455 214.0
65.794954311 232.0
65.799878167 205.0
65.804802023 201.0
65.809725879 201.0
65.814649735 211.0
65.819573591 257.0
65.824497447 241.0
65.829421303 225.0
65.834345159 200.0
65.839269015 204.0
65.844192871 191.0
65.849116727 215.0
65.854040583 198.0
65.858964439 210.0
65.863888295 228.0
65.868812151 225.0
65.873736007 205.0
65.878659863 219.0
65.883583719 255.0
65.888507575 261.0
65.893431431 225.0
65.898355287 233.0
65.903279143 266.0
65.908202999 222.0
65.913126855 219.0
65.918050711 217.0
65.922974567 217.0
65.927898424 206.0
65.932822280 232.0
65.937746136 215.0
65.942669992 241.0
65.947593848 211.0
65.952517704 213.0
65.957441560 226.0
65.962365416 263.0
65.967289272 216.0
65.972213128 262.0
65.977136984 218.0
65.982060840 227.0
65.986984696 255.0
65.991908552 267.0
65.996832408 226.0
66.001756264 203.0
66.006680120 237.0
66.011603976 262.0
66.016527832 224.0
66.021451688 211.0
66.026375544 219.0
66.031299400 230.0
66.036223256 215.0
66.041147112 235.0
66.046070968 257.0
66.050994824 236.0
66.055918680 270.0
66.060842536 279.0
66.065766392 215.0
66.070690248 256.0
66.075614104 258.0
66.080537960 258.0
66.085461816 226.0
66.090385672 220.0
66.095309528 236.0
66.100233384 260.0
66.105157240 257.0
66.110081096 234.0
66.115004952 225.0
66.119928808 228.0
66.124852664 260.0
66.129776520 229.0
66.134700376 273.0
66.139624232 257.0
66.144548088 263.0
66.149471944 233.0
66.154395800 272.0
66.159319656 262.0
66.164243512 234.0
66.169167368 260.0
66.174091224 220.0
66.179015080 284.0
66.183938936 258.0
66.188862792 286.0
66.193786648 263.0
66.198710504 291.0
66.203634360 301.0
66.208558216 261.0
66.213482072 222.0
66.218405928 272.0
66.223329784 257.0
66.228253640 286.0
66.233177496 274.0
66.238101352 285.0
66.243025208 297.0
66.247949064 261.0
66.252872920 286.0
66.257796776 287.0
66.262720632 291.0
66.267644488 297.0
66.272568344 293.0
66.277492200 256.0
66.282416056 261.0
66.287339912 299.0
66.292263768 278.0
66.297187625 292.0
66.302111481 277.0
66.307035337 274.0
66.311959193 274.0
66.316883049 304.0
66.321806905 298.0
66.326730761 287.0
66.331654617 286.0
66.336578473 298.0
66.341502329 290.0
66.346426185 316.0
66.351350041 274.0
66.356273897 292.0
66.361197753 313.0
66.366121609 298.0
66.371045465 291.0
66.375969321 296.0
66.380893177 328.0
66.385817033 307.0
66.390740889 341.0
66.395664745 278.0
66.400588601 306.0
66.405512457 296.0
66.410436313 301.0
66.415360169 291.0
66.420284025 341.0
66.425207881 313.0
66.430131737 309.0
66.435055593 297.0
66.439979449 346.0
66.444903305 292.0
66.449827161 310.0
66.454751017 320.0
66.459674873 334.0
66.464598729 309.0
66.469522585 331.0
66.474446441 312.0
66.479370297 314.0
66.484294153 297.0
66.489218009 324.0
66.494141865 338.0
66.499065721 284.0
66.503989577 332.0
66.508913433 294.0
66.513837289 327.0
66.518761145 345.0
66.523685001 334.0
66.528608857 348.0
66.533532713 345.0
66.538456569 347.0
66.543380425 351.0
66.548304281 329.0
66.553228137 290.0
66.558151993 368.0
66.563075849 340.0
66.567999705 335.0
66.572923561 335.0
66.577847417 336.0
66.582771273 334.0
66.587695129 324.0
66.592618985 346.0
66.597542841 340.0
66.602466697 349.0
66.607390553 369.0
66.612314409 373.0
66.617238265 358.0
66.622162121 350.0
66.627085977 356.0
66.632009833 367.0
66.636933689 344.0
66.641857545 356.0
66.646781401 368.0
66.651705257 372.0
66.656629113 380.0
66.661552969 395.0
66.666476826 372.0
66.671400682 347.0
66.676324538 380.0
66.681248394 344.0
66.686172250 383.0
66.691096106 381.0
66.696019962 372.0
66.700943818 408.0
66.705867674 409.0
66.710791530 361.0
66.715715386 352.0
66.720639242 367.0
66.725563098 375.0
66.730486954 399.0
66.735410810 355.0
66.740334666 409.0
66.745258522 362.0
66.750182378 414.0
66.755106234 383.0
66.760030090 434.0
66.764953946 384.0
66.769877802 392.0
66.774801658 391.0
66.779725514 376.0
66.784649370 414.0
66.789573226 392.0
66.794497082 400.0
66.799420938 378.0
66.804344794 396.0
66.809268650 446.0
66.814192506 420.0
66.819116362 394.0
66.824040218 419.0
66.828964074 378.0
66.833887930 431.0
66.838811786 420.0
66.843735642 368.0
66.848659498 380.0
66.853583354 427.0
66.858507210 416.0
66.863431066 426.0
66.868354922 454.0
66.873278778 390.0
66.878202634 393.0
66.883126490 421.0
66.888050346 402.0
66.892974202 391.0
66.897898058 445.0
66.902821914 410.0
66.907745770 435.0
66.912669626 446.0
66.917593482 482.0
66.922517338 414.0
66.927441194 446.0
66.932365050 453.0
66.937288906 432.0
66.942212762 443.0
66.947136618 465.0
66.952060474 478.0
66.956984330 420.0
66.961908186 451.0
66.966832042 469.0
66.971755898 485.0
66.976679754 427.0
66.981603610 477.0
66.986527466 453.0
66.991451322 473.0
66.996375178 518.0
67.001299034 496.0
67.006222890 497.0
67.011146746 485.0
67.016070602 484.0
67.020994458 460.0
67.025918314 489.0
67.030842170 467.0
67.035766026 485.0
67.040689883 425.0
67.045613739 492.0
67.050537595 542.0
67.055461451 468.0
67.060385307 503.0
67.065309163 466.0
67.070233019 489.0
67.075156875 500.0
67.080080731 457.0
67.085004587 511.0
67.089928443 492.0
67.094852299 492.0
67.099776155 474.0
67.104700011 531.0
67.109623867 512.0
67.114547723 536.0
67.119471579 493.0
67.124395435 513.0
67.129319291 543.0
67.134243147 518.0
67.139167003 551.0
67.144090859 522.0
67.149014715 528.0
67.153938571 549.0
67.158862427 577.0
67.163786283 515.0
67.168710139 543.0
67.173633995 519.0
67.178557851 537.0
67.183481707 498.0
67.188405563 576.0
67.193329419 584.0
67.198253275 592.0
67.203177131 576.0
67.208100987 545.0
67.213024843 602.0
67.217948699 571.0
67.222872555 597.0
67.227796411 546.0
67.232720267 577.0
67.237644123 584.0
67.242567979 612.0
67.247491835 553.0
67.252415691 595.0
67.257339547 623.0
67.262263403 568.0
67.267187259 582.0
67.272111115 629.0
67.277034971 650.0
67.281958827 607.0
67.286882683 589.0
67.291806539 614.0
67.296730395 621.0
67.301654251 638.0
67.306578107 578.0
67.311501963 656.0
67.316425819 612.0
67.321349675 677.0
67.326273531 646.0
67.331197387 632.0
67.336121243 623.0
67.341045099 615.0
67.345968955 648.0
67.350892811 633.0
67.355816667 675.0
67.360740523 682.0
67.365664379 629.0
67.370588235 671.0
67.375512091 708.0
67.380435947 729.0
67.385359803 689.0
67.390283659 679.0
67.395207515 686.0
67.400131371 699.0
67.405055227 720.0
67.409979084 741.0
67.414902940 699.0
67.419826796 760.0
67.424750652 748.0
67.429674508 715.0
67.434598364 737.0
67.439522220 721.0
67.444446076 785.0
67.449369932 724.0
67.454293788 745.0
67.459217644 765.0
67.464141500 786.0
67.469065356 750.0
67.473989212 733.0
67.478913068 780.0
67.483836924 798.0
67.488760780 790.0
67.493684636 813.0
67.498608492 811.0
67.503532348 825.0
67.508456204 808.0
67.513380060 839.0
67.518303916 828.0
67.523227772 822.0
67.528151628 878.0
67.533075484 826.0
67.537999340 830.0
67.542923196 867.0
67.547847052 881.0
67.552770908 872.0
67.557694764 857.0
67.562618620 909.0
67.567542476 918.0
67.572466332 872.0
67.577390188 963.0
67.582314044 988.0
67.587237900 927.0
67.592161756 897.0
67.597085612 988.0
67.602009468 1023.0
67.606933324 995.0
67.611857180 980.0
67.616781036 943.0
67.621704892 1013.0
67.626628748 1018.0
67.631552604 1054.0
67.636476460 1040.0
67.641400316 1014.0
67.646324172 1151.0
67.651248028 1158.0
67.656171884 1066.0
67.661095740 1171.0
67.666019596 1149.0
67.670943452 1148.0
67.675867308 1190.0
67.680791164 1290.0
67.685715020 1307.0
67.690638876 1264.0
67.695562732 1325.0
67.700486588 1356.0
67.705410444 1437.0
67.710334300 1476.0
67.715258156 1461.0
67.720182012 1472.0
67.725105868 1558.0
67.730029724 1653.0
67.734953580 1685.0
67.739877436 1798.0
67.744801292 1857.0
67.749725148 1854.0
67.754649004 2073.0
67.759572860 2039.0
67.764496716 2303.0
67.769420572 2312.0
67.774344428 2406.0
67.779268285 2466.0
67.784192141 2681.0
67.789115997 2661.0
67.794039853 2891.0
67.798963709 2968.0
67.803887565 3131.0
67.808811421 3146.0
67.813735277 3366.0
67.818659133 3387.0
67.823582989 3549.0
67.828506845 3580.0
67.833430701 3624.0
67.838354557 3686.0
67.843278413 3759.0
67.848202269 3753.0
67.853126125 3750.0
67.858049981 3785.0
67.862973837 3766.0
67.867897693 3752.0
67.872821549 3845.0
67.877745405 3796.0
67.882669261 3821.0
67.887593117 3612.0
67.892516973 3652.0
67.897440829 3571.0
67.902364685 3652.0
67.907288541 3526.0
67.912212397 3526.0
67.917136253 3562.0
67.922060109 3518.0
67.926983965 3676.0
67.931907821 3721.0
67.936831677 3740.0
67.941755533 3710.0
67.946679389 3891.0
67.951603245 3886.0
67.956527101 4033.0
67.961450957 4212.0
67.966374813 4186.0
67.971298669 4511.0
67.976222525 4459.0
67.981146381 4711.0
67.986070237 4824.0
67.990994093 5185.0
67.995917949 5368.0
68.000841805 5472.0
68.005765661 5991.0
68.010689517 6064.0
68.015613373 6860.0
68.020537229 6855.0
68.025461085 7621.0
68.030384941 7553.0
68.035308797 8570.0
68.040232653 8913.0
68.045156509 9862.0
68.050080365 10372.0
68.055004221 11655.0
68.059928077 12306.0
68.064851933 13615.0
68.069775789 15096.0
68.074699645 16884.0
68.079623501 18475.0
68.084547357 21160.0
68.089471213 23578.0
68.094395069 28300.0
68.099318925 31571.0
68.104242781 39270.0
68.109166637 44405.0
68.114090493 60001.0
68.119014349 70172.0
68.123938205 102959.0
68.128862061 124374.0
68.133785917 184603.0
68.138709773 219224.0
68.143633629 276728.0
68.148557486 303949.0
68.153481342 331664.0
68.158405198 346851.0
68.163329054 356855.0
68.168252910 365987.0
68.173176766 356458.0
68.178100622 353071.0
68.183024478 316678.0
68.187948334 299683.0
68.192872190 230376.0
68.197796046 193941.0
68.202719902 141978.0
68.207643758 115926.0
68.212567614 88720.0
68.217491470 73111.0
68.222415326 58603.0
68.227339182 48139.0
68.232263038 40078.0
68.237186894 33937.0
68.242110750 29874.0
68.247034606 26503.0
68.251958462 23843.0
68.256882318 22501.0
68.261806174 21179.0
68.266730030 20590.0
68.271653886 19900.0
68.276577742 20213.0
68.281501598 20894.0
68.286425454 22262.0
68.291349310 24102.0
68.296273166 26826.0
68.301197022 30864.0
68.306120878 36298.0
68.311044734 44334.0
68.315968590 55052.0
68.320892446 70118.0
68.325816302 89623.0
68.330740158 110228.0
68.335664014 130362.0
68.340587870 147329.0
68.345511726 160884.0
68.350435582 170443.0
68.355359438 175916.0
68.360283294 178174.0
68.365207150 176398.0
68.370131006 170796.0
68.375054862 159542.0
68.379978718 143848.0
68.384902574 123097.0
68.389826430 101784.0
68.394750286 82053.0
68.399674142 65820.0
68.404597998 52081.0
68.409521854 41851.0
68.414445710 33384.0
68.419369566 27374.0
68.424293422 22546.0
68.429217278 19242.0
68.434141134 16562.0
68.439064990 14533.0
68.443988846 12864.0
68.448912702 11330.0
68.453836558 10166.0
68.458760414 9211.0
68.463684270 8396.0
68.468608126 7772.0
68.473531982 7296.0
68.478455838 6875.0
68.483379694 6605.0
68.488303550 5988.0
68.493227406 5740.0
68.498151262 5513.0
68.503075118 5093.0
68.507998974 5015.0
68.512922830 4670.0
68.517846687 4562.0
68.522770543 4261.0
68.527694399 4225.0
68.532618255 4049.0
68.537542111 3841.0
68.542465967 3658.0
68.547389823 3553.0
68.552313679 3594.0
68.557237535 3342.0
68.562161391 3184.0
68.567085247 3106.0
68.572009103 2995.0
68.576932959 3062.0
68.581856815 2877.0
68.586780671 2857.0
68.591704527 2737.0
68.596628383 2700.0
68.601552239 2664.0
68.606476095 2504.0
68.611399951 2473.0
68.616323807 2450.0
68.621247663 2303.0
68.626171519 2312.0
68.631095375 2221.0
68.636019231 2202.0
68.640943087 2085.0
68.645866943 1992.0
68.650790799 1997.0
68.655714655 2037.0
68.660638511 1965.0
68.665562367 1880.0
68.670486223 1899.0
68.675410079 1857.0
68.680333935 1791.0
68.685257791 1803.0
68.690181647 1769.0
68.695105503 1696.0
68.700029359 1705.0
68.704953215 1704.0
68.709877071 1566.0
68.714800927 1557.0
68.719724783 1581.0
68.724648639 1571.0
68.729572495 1525.0
68.734496351 1462.0
68.739420207 1509.0
68.744344063 1485.0
68.749267919 1440.0
68.754191775 1412.0
68.759115631 1400.0
68.764039487 1370.0
68.768963343 1341.0
68.773887199 1307.0
68.778811055 1357.0
68.783734911 1302.0
68.788658767 1273.0
68.793582623 1278.0
68.798506479 1190.0
68.803430335 1163.0
68.808354191 1149.0
68.813278047 1133.0
68.818201903 1088.0
68.823125759 1101.0
68.828049615 1134.0
68.832973471 1046.0
68.837897327 1073.0
68.842821183 1004.0
68.847745039 1070.0
68.852668895 1005.0
68.857592751 1023.0
68.862516607 1000.0
68.867440463 927.0
68.872364319 1027.0
68.877288175 979.0
68.882212031 891.0
68.887135887 912.0
68.892059744 935.0
68.896983600 922.0
68.901907456 867.0
68.906831312 851.0
68.911755168 875.0
68.916679024 892.0
68.921602880 906.0
68.926526736 891.0
68.931450592 884.0
68.936374448 875.0
68.941298304 805.0
68.946222160 794.0
68.951146016 835.0
68.956069872 802.0
68.960993728 781.0
68.965917584 789.0
68.970841440 778.0
68.975765296 786.0
68.980689152 769.0
68.985613008 757.0
68.990536864 760.0
68.995460720 735.0
69.000384576 798.0
69.005308432 795.0
69.010232288 715.0
69.015156144 749.0
69.020080000 725.0
69.025003856 717.0
69.029927712 697.0
69.034851568 726.0
69.039775424 702.0
69.044699280 723.0
69.049623136 700.0
69.054546992 664.0
69.059470848 669.0
69.064394704 625.0
69.069318560 722.0
69.074242416 645.0
69.079166272 636.0
69.084090128 672.0
69.089013984 644.0
69.093937840 678.0
69.098861696 652.0
69.103785552 618.0
69.108709408 638.0
69.113633264 598.0
69.118557120 672.0
69.123480976 568.0
69.128404832 599.0
69.133328688 609.0
69.138252544 652.0
69.143176400 594.0
69.148100256 500.0
69.153024112 576.0
69.157947968 594.0
69.162871824 565.0
69.167795680 551.0
69.172719536 584.0
69.177643392 549.0
69.182567248 572.0
69.187491104 570.0
69.192414960 521.0
69.197338816 556.0
69.202262672 549.0
69.207186528 483.0
69.212110384 524.0
69.217034240 561.0
69.221958096 501.0
69.226881952 524.0
69.231805808 503.0
69.236729664 529.0
69.241653520 515.0
69.246577376 537.0
69.251501232 481.0
69.256425088 463.0
69.261348945 491.0
69.266272801 483.0
69.271196657 482.0
69.276120513 445.0
69.281044369 438.0
69.285968225 524.0
69.290892081 459.0
69.295815937 539.0
69.300739793 488.0
69.305663649 505.0
69.310587505 425.0
69.315511361 502.0
69.320435217 429.0
69.325359073 419.0
69.330282929 422.0
69.335206785 441.0
69.340130641 462.0
69.345054497 451.0
69.349978353 472.0
69.354902209 453.0
69.359826065 418.0
69.364749921 415.0
69.369673777 450.0
69.374597633 409.0
69.379521489 435.0
69.384445345 461.0
69.389369201 416.0
69.394293057 384.0
69.399216913 380.0
69.404140769 390.0
69.409064625 415.0
69.413988481 398.0
69.418912337 420.0
69.423836193 425.0
69.428760049 414.0
69.433683905 379.0
69.438607761 367.0
69.443531617 402.0
69.448455473 352.0
69.453379329 360.0
69.458303185 349.0
69.463227041 393.0
69.468150897 362.0
69.473074753 396.0
69.477998609 325.0
69.482922465 351.0
69.487846321 381.0
69.492770177 329.0
69.497694033 349.0
69.502617889 339.0
69.507541745 364.0
69.512465601 340.0
69.517389457 354.0
69.522313313 310.0
69.527237169 339.0
69.532161025 352.0
69.537084881 345.0
69.542008737 340.0
69.546932593 331.0
69.551856449 342.0
69.556780305 349.0
69.561704161 337.0
69.566628017 329.0
69.571551873 316.0
69.576475729 337.0
69.581399585 311.0
69.586323441 327.0
69.591247297 297.0
69.596171153 309.0
69.601095009 327.0
69.606018865 335.0
69.610942721 328.0
69.615866577 317.0
69.620790433 290.0
69.625714289 294.0
69.630638146 311.0
69.635562002 294.0
69.640485858 300.0
69.645409714 292.0
69.650333570 276.0
69.655257426 287.0
69.660181282 274.0
69.665105138 298.0
69.670028994 303.0
69.674952850 306.0
69.679876706 342.0
69.684800562 279.0
69.689724418 290.0
69.694648274 276.0
69.699572130 269.0
69.704495986 289.0
69.709419842 297.0
69.714343698 290.0
69.719267554 262.0
69.724191410 257.0
69.729115266 276.0
69.734039122 267.0
69.738962978 256.0
69.743886834 268.0
69.748810690 231.0
69.753734546 273.0
69.758658402 269.0
69.763582258 279.0
69.768506114 268.0
69.773429970 234.0
69.778353826 260.0
69.783277682 237.0
69.788201538 273.0
69.793125394 221.0
69.798049250 284.0
69.802973106 270.0
69.807896962 213.0
69.812820818 236.0
69.817744674 237.0
69.822668530 237.0
69.827592386 219.0
69.832516242 201.0
69.837440098 239.0
69.842363954 226.0
69.847287810 230.0
69.852211666 211.0
69.857135522 264.0
69.862059378 235.0
69.866983234 228.0
69.871907090 235.0
69.876830946 262.0
69.881754802 261.0
69.886678658 226.0
69.891602514 230.0
69.896526370 266.0
69.901450226 202.0
69.906374082 266.0
69.911297938 238.0
69.916221794 209.0
69.921145650 201.0
69.926069506 202.0
69.930993362 223.0
69.935917218 268.0
69.940841074 209.0
69.945764930 225.0
69.950688786 226.0
69.955612642 225.0
69.960536498 232.0
69.965460354 227.0
69.970384210 211.0
69.975308066 220.0
69.980231922 231.0
69.985155778 267.0
69.990079634 215.0
69.995003490 225.0
69.999927347 233.0
70.004851203 201.0
70.009775059 239.0
70.014698915 213.0
70.019622771 259.0
70.024546627 199.0
70.029470483 209.0
70.034394339 195.0
70.039318195 212.0
70.044242051 208.0
70.049165907 222.0
70.054089763 199.0
70.059013619 189.0
70.063937475 210.0
70.068861331 200.0
70.073785187 194.0
70.078709043 187.0
70.083632899 204.0
70.088556755 210.0
70.093480611 210.0
70.098404467 192.0
70.103328323 187.0
70.108252179 199.0
70.113176035 202.0
70.118099891 209.0
70.123023747 219.0
70.127947603 205.0
70.132871459 201.0
70.137795315 180.0
70.142719171 210.0
70.147643027 182.0
70.152566883 216.0
70.157490739 213.0
70.162414595 219.0
70.167338451 223.0
70.172262307 198.0
70.177186163 213.0
70.182110019 194.0
70.187033875 204.0
70.191957731 188.0
70.196881587 222.0
70.201805443 183.0
70.206729299 197.0
70.211653155 218.0
70.216577011 197.0
70.221500867 219.0
70.226424723 177.0
70.231348579 167.0
70.236272435 211.0
70.241196291 214.0
70.246120147 203.0
70.251044003 203.0
70.255967859 208.0
70.260891715 191.0
70.265815571 172.0
70.270739427 196.0
70.275663283 176.0
70.280587139 203.0
70.285510995 186.0
70.290434851 206.0
70.295358707 204.0
70.300282563 197.0
70.305206419 204.0
70.310130275 169.0
70.315054131 192.0
70.319977987 158.0
70.324901843 216.0
70.329825699 190.0
70.334749555 191.0
70.339673411 200.0
70.344597267 178.0
70.349521123 213.0
70.354444979 188.0
70.359368835 194.0
70.364292691 199.0
70.369216548 206.0
70.374140404 189.0
70.379064260 166.0
70.383988116 192.0
70.388911972 205.0
70.393835828 215.0
70.398759684 175.0
70.403683540 175.0
70.408607396 194.0
70.413531252 189.0
70.418455108 185.0
70.423378964 168.0
70.428302820 203.0
70.433226676 192.0
70.438150532 193.0
70.443074388 173.0
70.447998244 187.0
70.452922100 193.0
70.457845956 166.0
70.462769812 177.0
70.467693668 164.0
70.472617524 178.0
70.477541380 179.0
70.482465236 184.0
70.487389092 183.0
70.492312948 189.0
70.497236804 192.0
70.502160660 184.0
70.507084516 182.0
70.512008372 211.0
70.516932228 157.0
70.521856084 174.0
70.526779940 156.0
70.531703796 180.0
70.536627652 204.0
70.541551508 183.0
70.546475364 172.0
70.551399220 174.0
70.556323076 200.0
70.561246932 183.0
70.566170788 178.0
70.571094644 205.0
70.576018500 186.0
70.580942356 184.0
70.585866212 190.0
70.590790068 152.0
70.595713924 179.0
70.600637780 187.0
70.605561636 182.0
70.610485492 176.0
70.615409348 168.0
70.620333204 165.0
70.625257060 170.0
70.630180916 188.0
70.635104772 164.0
70.640028628 163.0
70.644952484 169.0
70.649876340 163.0
70.654800196 176.0
70.659724052 177.0
70.664647908 168.0
70.669571764 171.0
70.674495620 184.0
70.679419476 175.0
70.684343332 184.0
70.689267188 180.0
70.694191044 152.0
70.699114900 173.0
70.704038756 173.0
70.708962612 164.0
70.713886468 171.0
70.718810324 168.0
70.723734180 173.0
70.728658036 159.0
70.733581892 160.0
70.738505748 177.0
70.743429605 175.0
70.748353461 170.0
70.753277317 164.0
70.758201173 145.0
70.763125029 156.0
70.768048885 182.0
70.772972741 181.0
70.777896597 201.0
70.782820453 188.0
70.787744309 151.0
70.792668165 167.0
70.797592021 172.0
70.802515877 152.0
70.807439733 180.0
70.812363589 153.0
70.817287445 157.0
70.822211301 169.0
70.827135157 152.0
70.832059013 157.0
70.836982869 151.0
70.841906725 160.0
70.846830581 140.0
70.851754437 157.0
70.856678293 172.0
70.861602149 190.0
70.866526005 173.0
70.871449861 161.0
70.876373717 159.0
70.881297573 158.0
70.886221429 170.0
70.891145285 179.0
70.896069141 165.0
70.900992997 186.0
70.905916853 179.0
70.910840709 148.0
70.915764565 161.0
70.920688421 160.0
70.925612277 150.0
70.930536133 156.0
70.935459989 179.0
70.940383845 171.0
70.945307701 185.0
70.950231557 169.0
70.955155413 175.0
70.960079269 179.0
70.965003125 179.0
70.969926981 142.0
70.974850837 142.0
70.979774693 160.0
70.984698549 175.0
70.989622405 172.0
70.994546261 159.0
70.999470117 185.0
71.004393973 182.0
71.009317829 153.0
71.014241685 145.0
71.019165541 145.0
71.024089397 194.0
71.029013253 146.0
71.033937109 163.0
71.038860965 179.0
71.043784821 176.0
71.048708677 162.0
71.053632533 157.0
71.058556389 161.0
71.063480245 143.0
71.068404101 146.0
71.073327957 189.0
71.078251813 170.0
71.083175669 129.0
71.088099525 184.0
71.093023381 179.0
71.097947237 161.0
71.102871093 132.0
71.107794949 142.0
71.112718806 155.0
71.117642662 174.0
71.122566518 153.0
71.127490374 151.0
71.132414230 163.0
71.137338086 159.0
71.142261942 153.0
71.147185798 155.0
71.152109654 136.0
71.157033510 166.0
71.161957366 136.0
71.166881222 157.0
71.171805078 163.0
71.176728934 147.0
71.181652790 173.0
71.186576646 165.0
71.191500502 163.0
71.196424358 167.0
71.201348214 152.0
71.206272070 154.0
71.211195926 138.0
71.216119782 161.0
71.221043638 180.0
71.225967494 165.0
71.230891350 155.0
71.235815206 146.0
71.240739062 183.0
71.245662918 170.0
71.250586774 169.0
71.255510630 168.0
71.260434486 152.0
71.265358342 136.0
71.270282198 154.0
71.275206054 160.0
71.280129910 164.0
71.285053766 163.0
71.289977622 154.0
71.294901478 142.0
71.299825334 147.0
71.304749190 166.0
71.309673046 151.0
71.314596902 188.0
71.319520758 176.0
71.324444614 152.0
71.329368470 176.0
71.334292326 153.0
71.339216182 172.0
71.344140038 154.0
71.349063894 151.0
71.353987750 166.0
71.358911606 169.0
71.363835462 147.0
71.368759318 169.0
71.373683174 171.0
71.378607030 152.0
71.383530886 159.0
71.388454742 178.0
71.393378598 143.0
71.398302454 163.0
71.403226310 158.0
71.408150166 134.0
71.413074022 153.0
71.417997878 162.0
71.422921734 155.0
71.427845590 157.0
71.432769446 156.0
71.437693302 154.0
71.442617158 146.0
71.447541014 164.0
71.452464870 169.0
71.457388726 154.0
71.462312582 148.0
71.467236438 162.0
71.472160294 159.0
71.477084150 148.0
71.482008007 169.0
71.486931863 150.0
71.491855719 159.0
71.496779575 132.0
71.501703431 139.0
71.506627287 153.0
71.511551143 168.0
71.516474999 143.0
71.521398855 156.0
71.526322711 154.0
71.531246567 156.0
71.536170423 163.0
71.541094279 171.0
71.546018135 141.0
71.550941991 137.0
71.555865847 148.0
71.560789703 169.0
71.565713559 148.0
71.570637415 134.0
71.575561271 156.0
71.580485127 158.0
71.585408983 143.0
71.590332839 139.0
71.595256695 152.0
71.600180551 134.0
71.605104407 148.0
71.610028263 147.0
71.614952119 140.0
71.619875975 159.0
71.624799831 148.0
71.629723687 164.0
71.634647543 134.0
71.639571399 158.0
71.644495255 133.0
71.649419111 127.0
71.654342967 157.0
71.659266823 166.0
71.664190679 171.0
71.669114535 149.0
71.674038391 167.0
71.678962247 141.0
71.683886103 143.0
71.688809959 152.0
71.693733815 176.0
71.698657671 151.0
71.703581527 140.0
71.708505383 150.0
71.713429239 164.0
71.718353095 142.0
71.723276951 139.0
71.728200807 157.0
71.733124663 162.0
71.738048519 166.0
71.742972375 130.0
71.747896231 150.0
71.752820087 133.0
71.757743943 155.0
71.762667799 159.0
71.767591655 157.0
71.772515511 130.0
71.777439367 166.0
71.782363223 154.0
71.787287079 166.0
71.792210935 155.0
71.797134791 144.0
71.802058647 132.0
71.806982503 168.0
71.811906359 129.0
71.816830215 136.0
71.821754071 150.0
71.826677927 179.0
71.831601783 156.0
71.836525639 123.0
71.841449495 152.0
71.846373351 151.0
71.851297208 142.0
71.856221064 153.0
71.861144920 141.0
71.866068776 164.0
71.870992632 161.0
71.875916488 132.0
71.880840344 121.0
71.885764200 151.0
71.890688056 168.0
71.895611912 161.0
71.900535768 145.0
71.905459624 164.0
71.910383480 149.0
71.915307336 128.0
71.920231192 135.0
71.925155048 124.0
71.930078904 169.0
71.935002760 146.0
71.939926616 172.0
71.944850472 160.0
71.949774328 152.0
71.954698184 124.0
71.959622040 154.0
71.964545896 127.0
71.969469752 141.0
71.974393608 137.0
71.979317464 152.0
71.984241320 145.0
71.989165176 151.0
71.994089032 154.0
71.999012888 140.0
72.003936744 127.0
72.008860600 151.0
72.013784456 154.0
72.018708312 160.0
72.023632168 154.0
72.028556024 155.0
72.033479880 168.0
72.038403736 139.0
72.043327592 152.0
72.048251448 168.0
72.053175304 133.0
72.058099160 140.0
72.063023016 167.0
72.067946872 146.0
72.072870728 149.0
72.077794584 137.0
72.082718440 156.0
72.087642296 144.0
72.092566152 136.0
72.097490008 143.0
72.102413864 154.0
72.107337720 145.0
72.112261576 158.0
72.117185432 150.0
72.122109288 143.0
72.127033144 165.0
72.131957000 166.0
72.136880856 153.0
72.141804712 143.0
72.146728568 170.0
72.151652424 152.0
72.156576280 133.0
72.161500136 116.0
72.166423992 155.0
72.171347848 165.0
72.176271704 133.0
72.181195560 154.0
72.186119416 143.0
72.191043272 136.0
72.195967128 143.0
72.200890984 141.0
72.205814840 160.0
72.210738696 168.0
72.215662552 155.0
72.220586409 146.0
72.225510265 135.0
72.230434121 149.0
72.235357977 159.0
72.240281833 147.0
72.245205689 139.0
72.250129545 146.0
72.255053401 149.0
72.259977257 153.0
72.264901113 129.0
72.269824969 139.0
72.274748825 130.0
72.279672681 129.0
72.284596537 166.0
72.289520393 144.0
72.294444249 143.0
72.299368105 146.0
72.304291961 153.0
72.309215817 131.0
72.314139673 134.0
72.319063529 151.0
72.323987385 140.0
72.328911241 134.0
72.333835097 157.0
72.338758953 129.0
72.343682809 133.0
72.348606665 132.0
72.353530521 141.0
72.358454377 136.0
72.363378233 150.0
72.368302089 144.0
72.373225945 130.0
72.378149801 175.0
72.383073657 144.0
72.387997513 129.0
72.392921369 163.0
72.397845225 148.0
72.402769081 155.0
72.407692937 149.0
72.412616793 176.0
72.417540649 161.0
72.422464505 158.0
72.427388361 126.0
72.432312217 138.0
72.437236073 136.0
72.442159929 155.0
72.447083785 134.0
72.452007641 139.0
72.456931497 146.0
72.461855353 138.0
72.466779209 153.0
72.471703065 127.0
72.476626921 122.0
72.481550777 153.0
72.486474633 137.0
72.491398489 153.0
72.496322345 160.0
72.501246201 142.0
72.506170057 131.0
72.511093913 146.0
72.516017769 160.0
72.520941625 165.0
72.525865481 151.0
72.530789337 155.0
72.535713193 150.0
72.540637049 155.0
72.545560905 146.0
72.550484761 143.0
72.555408617 139.0
72.560332473 131.0
72.565256329 148.0
72.570180185 140.0
72.575104041 160.0
72.580027897 137.0
72.584951753 154.0
72.589875609 148.0
72.594799466 138.0
72.599723322 127.0
72.604647178 139.0
72.609571034 123.0
72.614494890 161.0
72.619418746 147.0
72.624342602 156.0
72.629266458 145.0
72.634190314 148.0
72.639114170 129.0
72.644038026 171.0
72.648961882 149.0
72.653885738 162.0
72.658809594 149.0
72.663733450 153.0
72.668657306 166.0
72.673581162 160.0
72.678505018 146.0
72.683428874 145.0
72.688352730 152.0
72.693276586 121.0
72.698200442 156.0
72.703124298 152.0
72.708048154 158.0
72.712972010 157.0
72.717895866 140.0
72.722819722 146.0
72.727743578 155.0
72.732667434 155.0
72.737591290 157.0
72.742515146 131.0
72.747439002 163.0
72.752362858 142.0
72.757286714 159.0
72.762210570 134.0
72.767134426 155.0
72.772058282 131.0
72.776982138 161.0
72.781905994 143.0
72.786829850 134.0
72.791753706 150.0
72.796677562 135.0
72.801601418 152.0
72.806525274 146.0
72.811449130 129.0
72.816372986 139.0
72.821296842 138.0
72.826220698 152.0
72.831144554 137.0
72.836068410 145.0
72.840992266 138.0
72.845916122 127.0
72.850839978 140.0
72.855763834 145.0
72.860687690 145.0
72.865611546 142.0
72.870535402 144.0
72.875459258 150.0
72.880383114 151.0
72.885306970 163.0
72.890230826 138.0
72.895154682 136.0
72.900078538 161.0
72.905002394 122.0
72.909926250 143.0
72.914850106 131.0
72.919773962 156.0
72.924697818 131.0
72.929621674 130.0
72.934545530 112.0
72.939469386 132.0
72.944393242 132.0
72.949317098 138.0
72.954240954 158.0
72.959164810 154.0
72.964088667 154.0
72.969012523 141.0
72.973936379 129.0
72.978860235 150.0
72.983784091 138.0
72.988707947 170.0
72.993631803 146.0
72.998555659 123.0
73.003479515 139.0
73.008403371 137.0
73.013327227 118.0
73.018251083 153.0
73.023174939 134.0
73.028098795 154.0
73.033022651 156.0
73.037946507 140.0
73.042870363 135.0
73.047794219 158.0
73.052718075 133.0
73.057641931 145.0
73.062565787 131.0
73.067489643 148.0
73.072413499 132.0
73.077337355 133.0
73.082261211 155.0
73.087185067 116.0
73.092108923 134.0
73.097032779 138.0
73.101956635 133.0
73.106880491 143.0
73.111804347 134.0
73.116728203 160.0
73.121652059 159.0
73.126575915 125.0
73.131499771 114.0
73.136423627 133.0
73.141347483 137.0
73.146271339 137.0
73.151195195 132.0
73.156119051 143.0
73.161042907 150.0
73.165966763 118.0
73.170890619 148.0
73.175814475 136.0
73.180738331 156.0
73.185662187 154.0
73.190586043 138.0
73.195509899 146.0
73.200433755 128.0
73.205357611 145.0
73.210281467 152.0
73.215205323 154.0
73.220129179 153.0
73.225053035 131.0
73.229976891 142.0
73.234900747 120.0
73.239824603 139.0
73.244748459 136.0
73.249672315 150.0
73.254596171 125.0
73.259520027 137.0
73.264443883 146.0
73.269367739 123.0
73.274291595 148.0
73.279215451 157.0
73.284139307 153.0
73.289063163 122.0
73.293987019 140.0
73.298910875 153.0
73.303834731 168.0
73.308758587 129.0
73.313682443 134.0
73.318606299 145.0
73.323530155 159.0
73.328454011 132.0
73.333377868 137.0
73.338301724 131.0
73.343225580 165.0
73.348149436 149.0
73.353073292 145.0
73.357997148 124.0
73.362921004 157.0
73.367844860 153.0
73.372768716 126.0
73.377692572 145.0
73.382616428 143.0
73.387540284 154.0
73.392464140 149.0
73.397387996 140.0
73.402311852 132.0
73.407235708 131.0
73.412159564 123.0
73.417083420 136.0
73.422007276 117.0
73.426931132 145.0
73.431854988 139.0
73.436778844 140.0
73.441702700 133.0
73.446626556 125.0
73.451550412 149.0
73.456474268 136.0
73.461398124 124.0
73.466321980 128.0
73.471245836 160.0
73.476169692 161.0
73.481093548 134.0
73.486017404 136.0
73.490941260 147.0
73.495865116 136.0
73.500788972 165.0
73.505712828 150.0
73.510636684 148.0
73.515560540 142.0
73.520484396 142.0
73.525408252 132.0
73.530332108 153.0
73.535255964 156.0
73.540179820 152.0
73.545103676 147.0
73.550027532 144.0
73.554951388 156.0
73.559875244 149.0
73.564799100 141.0
73.569722956 130.0
73.574646812 153.0
73.579570668 144.0
73.584494524 138.0
73.589418380 127.0
73.594342236 140.0
73.599266092 134.0
73.604189948 113.0
73.609113804 141.0
73.614037660 125.0
73.618961516 163.0
73.623885372 119.0
73.628809228 158.0
73.633733084 168.0
73.638656940 158.0
73.643580796 151.0
73.648504652 152.0
73.653428508 133.0
73.658352364 150.0
73.663276220 133.0
73.668200076 137.0
73.673123932 130.0
73.678047788 133.0
73.682971644 138.0
73.687895500 141.0
73.692819356 152.0
73.697743212 136.0
73.702667069 142.0
73.707590925 132.0
73.712514781 158.0
73.717438637 141.0
73.722362493 136.0
73.727286349 137.0
73.732210205 134.0
73.737134061 152.0
73.742057917 146.0
73.746981773 143.0
73.751905629 131.0
73.756829485 133.0
73.761753341 135.0
73.766677197 145.0
73.771601053 173.0
73.776524909 131.0
73.781448765 148.0
73.786372621 160.0
73.791296477 163.0
73.796220333 150.0
73.801144189 129.0
73.806068045 161.0
73.810991901 145.0
73.815915757 143.0
73.820839613 125.0
73.825763469 130.0
73.830687325 135.0
73.835611181 131.0
73.840535037 151.0
73.845458893 118.0
73.850382749 147.0
73.855306605 130.0
73.860230461 147.0
73.865154317 137.0
73.870078173 147.0
73.875002029 137.0
73.879925885 121.0
73.884849741 125.0
73.889773597 125.0
73.894697453 130.0
73.899621309 150.0
73.904545165 147.0
73.909469021 123.0
73.914392877 141.0
73.919316733 145.0
73.924240589 154.0
73.929164445 137.0
73.934088301 144.0
73.939012157 143.0
73.943936013 135.0
73.948859869 153.0
73.953783725 163.0
73.958707581 119.0
73.963631437 136.0
73.968555293 153.0
73.973479149 141.0
73.978403005 124.0
73.983326861 164.0
73.988250717 130.0
73.993174573 150.0
73.998098429 135.0
74.003022285 155.0
74.007946141 150.0
74.012869997 138.0
74.017793853 155.0
74.022717709 137.0
74.027641565 132.0
74.032565421 140.0
74.037489277 135.0
74.042413133 140.0
74.047336989 143.0
74.052260845 143.0
74.057184701 133.0
74.062108557 111.0
74.067032413 148.0
74.071956270 127.0
74.076880126 158.0
74.081803982 126.0
74.086727838 117.0
74.091651694 150.0
74.096575550 161.0
74.101499406 135.0
74.106423262 134.0
74.111347118 145.0
74.116270974 161.0
74.121194830 146.0
74.126118686 119.0
74.131042542 142.0
74.135966398 151.0
74.140890254 157.0
74.145814110 133.0
74.150737966 157.0
74.155661822 137.0
74.160585678 125.0
74.165509534 135.0
74.170433390 118.0
74.175357246 143.0
74.180281102 146.0
74.185204958 120.0
74.190128814 148.0
74.195052670 143.0
74.199976526 150.0
74.204900382 136.0
74.209824238 144.0
74.214748094 130.0
74.219671950 138.0
74.224595806 142.0
74.229519662 140.0
74.234443518 123.0
74.239367374 137.0
74.244291230 148.0
74.249215086 143.0
74.254138942 146.0
74.259062798 121.0
74.263986654 124.0
74.268910510 120.0
74.273834366 131.0
74.278758222 145.0
74.283682078 150.0
74.288605934 147.0
74.293529790 120.0
74.298453646 159.0
74.303377502 131.0
74.308301358 157.0
74.313225214 155.0
74.318149070 139.0
74.323072926 155.0
74.327996782 128.0
74.332920638 144.0
74.337844494 140.0
74.342768350 162.0
74.347692206 145.0
74.352616062 128.0
74.357539918 124.0
74.362463774 147.0
74.367387630 143.0
74.372311486 126.0
74.377235342 151.0
74.382159198 145.0
74.387083054 144.0
74.392006910 122.0
74.396930766 133.0
74.401854622 143.0
74.406778478 116.0
74.411702334 137.0
74.416626190 132.0
74.421550046 122.0
74.426473902 133.0
74.431397758 151.0
74.436321614 129.0
74.441245470 129.0
74.446169327 126.0
74.451093183 141.0
74.456017039 142.0
74.460940895 147.0
74.465864751 136.0
74.470788607 117.0
74.475712463 146.0
74.480636319 154.0
74.485560175 154.0
74.490484031 128.0
74.495407887 135.0
74.500331743 134.0
74.505255599 147.0
74.510179455 145.0
74.515103311 140.0
74.520027167 126.0
74.524951023 129.0
74.529874879 137.0
74.534798735 145.0
74.539722591 144.0
74.544646447 151.0
74.549570303 157.0
74.554494159 141.0
74.559418015 118.0
74.564341871 128.0
74.569265727 146.0
74.574189583 141.0
74.579113439 133.0
74.584037295 144.0
74.588961151 139.0
74.593885007 150.0
74.598808863 164.0
74.603732719 141.0
74.608656575 113.0
74.613580431 130.0
74.618504287 123.0
74.623428143 131.0
74.628351999 131.0
74.633275855 136.0
74.638199711 131.0
74.643123567 147.0
74.648047423 140.0
74.652971279 126.0
74.657895135 135.0
74.662818991 134.0
74.667742847 152.0
74.672666703 149.0
74.677590559 133.0
74.682514415 144.0
74.687438271 152.0
74.692362127 126.0
74.697285983 135.0
74.702209839 137.0
74.707133695 144.0
74.712057551 140.0
74.716981407 153.0
74.721905263 138.0
74.726829119 133.0
74.731752975 146.0
74.736676831 143.0
74.741600687 152.0
74.746524543 149.0
74.751448399 141.0
74.756372255 125.0
74.761296111 150.0
74.766219967 140.0
74.771143823 129.0
74.776067679 149.0
74.780991535 114.0
74.785915391 127.0
74.790839247 151.0
74.795763103 146.0
74.800686959 135.0
74.805610815 139.0
74.810534671 117.0
74.815458528 141.0
74.820382384 130.0
74.825306240 128.0
74.830230096 108.0
74.835153952 159.0
74.840077808 152.0
74.845001664 135.0
74.849925520 132.0
74.854849376 129.0
74.859773232 138.0
74.864697088 118.0
74.869620944 152.0
74.874544800 150.0
74.879468656 135.0
74.884392512 141.0
74.889316368 130.0
74.894240224 161.0
74.899164080 130.0
74.904087936 135.0
74.909011792 133.0
74.913935648 133.0
74.918859504 133.0
74.923783360 120.0
74.928707216 140.0
74.933631072 130.0
74.938554928 141.0
74.943478784 147.0
74.948402640 149.0
74.953326496 132.0
74.958250352 137.0
74.963174208 140.0
74.968098064 144.0
74.973021920 139.0
74.977945776 136.0
74.982869632 129.0
74.987793488 141.0
74.992717344 154.0
74.997641200 148.0
