35.002061930 121.0
35.006985786 93.0
35.011909642 130.0
35.016833498 99.0
35.021757354 115.0
35.026681210 112.0
35.031605066 103.0
35.036528922 107.0
35.041452778 113.0
35.046376634 104.0
35.051300490 116.0
35.056224346 114.0
35.061148202 101.0
35.066072058 104.0
35.070995914 111.0
35.075919770 108.0
35.080843626 108.0
35.085767482 103.0
35.090691338 111.0
35.095615194 109.0
35.100539050 87.0
35.105462906 100.0
35.110386762 112.0
35.115310618 116.0
35.120234474 110.0
35.125158330 112.0
35.130082186 115.0
35.135006042 106.0
35.139929898 108.0
35.144853754 109.0
35.149777610 115.0
35.154701466 117.0
35.159625322 115.0
35.164549178 112.0
35.169473034 106.0
35.174396890 107.0
35.179320746 107.0
35.184244602 96.0
35.189168458 109.0
35.194092314 115.0
35.199016170 101.0
35.203940026 129.0
35.208863882 120.0
35.213787738 124.0
35.218711594 116.0
35.223635450 120.0
35.228559306 103.0
35.233483162 105.0
35.238407018 90.0
35.243330874 101.0
35.248254730 122.0
35.253178587 91.0
35.258102443 110.0
35.263026299 103.0
35.267950155 97.0
35.272874011 98.0
35.277797867 95.0
35.282721723 103.0
35.287645579 105.0
35.292569435 106.0
35.297493291 98.0
35.302417147 85.0
35.307341003 110.0
35.312264859 114.0
35.317188715 118.0
35.322112571 106.0
35.327036427 88.0
35.331960283 114.0
35.336884139 95.0
35.341807995 111.0
35.346731851 104.0
35.351655707 109.0
35.356579563 115.0
35.361503419 122.0
35.366427275 109.0
35.371351131 92.0
35.376274987 112.0
35.381198843 106.0
35.386122699 99.0
35.391046555 112.0
35.395970411 93.0
35.400894267 119.0
35.405818123 117.0
35.410741979 129.0
35.415665835 112.0
35.420589691 104.0
35.425513547 102.0
35.430437403 106.0
35.435361259 116.0
35.440285115 111.0
35.445208971 114.0
35.450132827 120.0
35.455056683 104.0
35.459980539 127.0
35.464904395 128.0
35.469828251 99.0
35.474752107 118.0
35.479675963 108.0
35.484599819 127.0
35.489523675 106.0
35.494447531 106.0
35.499371387 99.0
35.504295243 114.0
35.509219099 97.0
35.514142955 110.0
35.519066811 103.0
35.523990667 106.0
35.528914523 101.0
35.533838379 102.0
35.538762235 98.0
35.543686091 88.0
35.548609947 107.0
35.553533803 116.0
35.558457659 85.0
35.563381515 117.0
35.568305371 114.0
35.573229227 92.0
35.578153083 95.0
35.583076939 120.0
35.588000795 98.0
35.592924651 116.0
35.597848507 105.0
35.602772363 118.0
35.607696219 121.0
35.612620075 114.0
35.617543931 111.0
35.622467787 108.0
35.627391643 118.0
35.632315499 104.0
35.637239355 90.0
35.642163211 96.0
35.647087067 113.0
35.652010923 106.0
35.656934779 111.0
35.661858635 133.0
35.666782491 119.0
35.671706347 98.0
35.676630203 108.0
35.681554059 108.0
35.686477915 112.0
35.691401771 127.0
35.696325627 105.0
35.701249483 103.0
35.706173339 104.0
35.711097195 91.0
35.716021051 105.0
35.720944907 120.0
35.725868763 129.0
35.730792619 125.0
35.735716475 110.0
35.740640331 120.0
35.745564187 119.0
35.750488043 107.0
35.755411900 103.0
35.760335756 106.0
35.765259612 101.0
35.770183468 100.0
35.775107324 104.0
35.780031180 108.0
35.784955036 112.0
35.789878892 111.0
35.794802748 106.0
35.799726604 86.0
35.804650460 121.0
35.809574316 129.0
35.814498172 101.0
35.819422028 106.0
35.824345884 116.0
35.829269740 116.0
35.834193596 107.0
35.839117452 101.0
35.844041308 96.0
35.848965164 102.0
35.853889020 116.0
35.858812876 109.0
35.863736732 109.0
35.868660588 101.0
35.873584444 112.0
35.878508300 101.0
35.883432156 124.0
35.888356012 113.0
35.893279868 113.0
35.898203724 110.0
35.903127580 126.0
35.908051436 134.0
35.912975292 121.0
35.917899148 101.0
35.922823004 125.0
35.927746860 114.0
35.932670716 117.0
35.937594572 104.0
35.942518428 107.0
35.947442284 126.0
35.952366140 90.0
35.957289996 119.0
35.962213852 102.0
35.967137708 119.0
35.972061564 110.0
35.976985420 107.0
35.981909276 107.0
35.986833132 125.0
35.991756988 107.0
35.996680844 128.0
36.001604700 94.0
36.006528556 114.0
36.011452412 111.0
36.016376268 113.0
36.021300124 126.0
36.026223980 106.0
36.031147836 85.0
36.036071692 115.0
36.040995548 126.0
36.045919404 115.0
36.050843260 111.0
36.055767116 91.0
36.060690972 105.0
36.065614828 116.0
36.070538684 108.0
36.075462540 102.0
36.080386396 101.0
36.085310252 89.0
36.090234108 106.0
36.095157964 98.0
36.100081820 103.0
36.105005676 86.0
36.109929532 118.0
36.114853388 119.0
36.119777244 114.0
36.124701100 110.0
36.129624956 116.0
36.134548812 108.0
36.139472668 118.0
36.144396524 102.0
36.149320380 110.0
36.154244236 113.0
36.159168092 117.0
36.164091948 106.0
36.169015804 103.0
36.173939660 108.0
36.178863516 107.0
36.183787372 103.0
36.188711228 111.0
36.193635084 126.0
36.198558940 104.0
36.203482796 95.0
36.208406652 99.0
36.213330508 118.0
36.218254364 102.0
36.223178220 120.0
36.228102076 113.0
36.233025932 110.0
36.237949788 125.0
36.242873644 115.0
36.247797500 131.0
36.252721357 108.0
36.257645213 110.0
36.262569069 111.0
36.267492925 103.0
36.272416781 104.0
36.277340637 111.0
36.282264493 109.0
36.287188349 101.0
36.292112205 114.0
36.297036061 109.0
36.301959917 89.0
36.306883773 107.0
36.311807629 103.0
36.316731485 91.0
36.321655341 122.0
36.326579197 109.0
36.331503053 99.0
36.336426909 115.0
36.341350765 111.0
36.346274621 115.0
36.351198477 106.0
36.356122333 134.0
36.361046189 106.0
36.365970045 128.0
36.370893901 118.0
36.375817757 103.0
36.380741613 88.0
36.385665469 103.0
36.390589325 109.0
36.395513181 113.0
36.400437037 112.0
36.405360893 107.0
36.410284749 114.0
36.415208605 117.0
36.420132461 100.0
36.425056317 97.0
36.429980173 121.0
36.434904029 110.0
36.439827885 105.0
36.444751741 116.0
36.449675597 122.0
36.454599453 123.0
36.459523309 122.0
36.464447165 93.0
36.469371021 109.0
36.474294877 116.0
36.479218733 113.0
36.484142589 106.0
36.489066445 118.0
36.493990301 105.0
36.498914157 113.0
36.503838013 127.0
36.508761869 103.0
36.513685725 98.0
36.518609581 85.0
36.523533437 93.0
36.528457293 103.0
36.533381149 132.0
36.538305005 128.0
36.543228861 97.0
36.548152717 110.0
36.553076573 117.0
36.558000429 118.0
36.562924285 99.0
36.567848141 116.0
36.572771997 95.0
36.577695853 118.0
36.582619709 100.0
36.587543565 108.0
36.592467421 115.0
36.597391277 127.0
36.602315133 122.0
36.607238989 116.0
36.612162845 111.0
36.617086701 125.0
36.622010557 116.0
36.626934413 118.0
36.631858269 98.0
36.636782125 100.0
36.641705981 110.0
36.646629837 98.0
36.651553693 112.0
36.656477549 98.0
36.661401405 116.0
36.666325261 102.0
36.671249117 117.0
36.676172973 127.0
36.681096829 129.0
36.686020685 101.0
36.690944541 105.0
36.695868397 119.0
36.700792253 115.0
36.705716109 112.0
36.710639965 114.0
36.715563821 102.0
36.720487677 115.0
36.725411533 103.0
36.730335389 116.0
36.735259245 97.0
36.740183101 105.0
36.745106957 110.0
36.750030813 112.0
36.754954670 131.0
36.759878526 109.0
36.764802382 91.0
36.769726238 116.0
36.774650094 101.0
36.779573950 119.0
36.784497806 118.0
36.789421662 121.0
36.794345518 107.0
36.799269374 116.0
36.804193230 109.0
36.809117086 132.0
36.814040942 124.0
36.818964798 109.0
36.823888654 126.0
36.828812510 99.0
36.833736366 121.0
36.838660222 116.0
36.843584078 121.0
36.848507934 108.0
36.853431790 104.0
36.858355646 111.0
36.863279502 109.0
36.868203358 110.0
36.873127214 107.0
36.878051070 121.0
36.882974926 111.0
36.887898782 118.0
36.892822638 113.0
36.897746494 120.0
36.902670350 118.0
36.907594206 123.0
36.912518062 103.0
36.917441918 121.0
36.922365774 106.0
36.927289630 98.0
36.932213486 110.0
36.937137342 125.0
36.942061198 106.0
36.946985054 102.0
36.951908910 109.0
36.956832766 115.0
36.961756622 119.0
36.966680478 111.0
36.971604334 122.0
36.976528190 119.0
36.981452046 119.0
36.986375902 110.0
36.991299758 120.0
36.996223614 91.0
37.001147470 112.0
37.006071326 131.0
37.010995182 115.0
37.015919038 106.0
37.020842894 118.0
37.025766750 111.0
37.030690606 111.0
37.035614462 115.0
37.040538318 98.0
37.045462174 107.0
37.050386030 111.0
37.055309886 93.0
37.060233742 111.0
37.065157598 107.0
37.070081454 102.0
37.075005310 132.0
37.079929166 98.0
37.084853022 141.0
37.089776878 103.0
37.094700734 112.0
37.099624590 119.0
37.104548446 113.0
37.109472302 98.0
37.114396158 119.0
37.119320014 108.0
37.124243870 110.0
37.129167726 127.0
37.134091582 129.0
37.139015438 117.0
37.143939294 131.0
37.148863150 115.0
37.153787006 118.0
37.158710862 130.0
37.163634718 126.0
37.168558574 129.0
37.173482430 107.0
37.178406286 119.0
37.183330142 133.0
37.188253998 108.0
37.193177854 120.0
37.198101710 115.0
37.203025566 119.0
37.207949422 130.0
37.212873278 119.0
37.217797134 98.0
37.222720990 130.0
37.227644846 120.0
37.232568702 118.0
37.237492558 134.0
37.242416414 124.0
37.247340270 132.0
37.252264127 131.0
37.257187983 121.0
37.262111839 122.0
37.267035695 110.0
37.271959551 122.0
37.276883407 121.0
37.281807263 131.0
37.286731119 132.0
37.291654975 125.0
37.296578831 113.0
37.301502687 135.0
37.306426543 116.0
37.311350399 123.0
37.316274255 126.0
37.321198111 128.0
37.326121967 147.0
37.331045823 114.0
37.335969679 108.0
37.340893535 128.0
37.345817391 118.0
37.350741247 125.0
37.355665103 131.0
37.360588959 135.0
37.365512815 117.0
37.370436671 162.0
37.375360527 144.0
37.380284383 151.0
37.385208239 155.0
37.390132095 126.0
37.395055951 167.0
37.399979807 168.0
37.404903663 193.0
37.409827519 204.0
37.414751375 281.0
37.419675231 306.0
37.424599087 304.0
37.429522943 330.0
37.434446799 319.0
37.439370655 362.0
37.444294511 368.0
37.449218367 308.0
37.454142223 321.0
37.459066079 294.0
37.463989935 303.0
37.468913791 287.0
37.473837647 218.0
37.478761503 215.0
37.483685359 173.0
37.488609215 164.0
37.493533071 144.0
37.498456927 156.0
37.503380783 144.0
37.508304639 145.0
37.513228495 160.0
37.518152351 144.0
37.523076207 138.0
37.528000063 145.0
37.532923919 166.0
37.537847775 158.0
37.542771631 136.0
37.547695487 144.0
37.552619343 147.0
37.557543199 152.0
37.562467055 137.0
37.567390911 128.0
37.572314767 135.0
37.577238623 130.0
37.582162479 143.0
37.587086335 136.0
37.592010191 116.0
37.596934047 154.0
37.601857903 136.0
37.606781759 134.0
37.611705615 143.0
37.616629471 135.0
37.621553327 134.0
37.626477183 132.0
37.631401039 146.0
37.636324895 138.0
37.641248751 140.0
37.646172607 144.0
37.651096463 120.0
37.656020319 146.0
37.660944175 146.0
37.665868031 125.0
37.670791887 144.0
37.675715743 161.0
37.680639599 145.0
37.685563455 131.0
37.690487311 154.0
37.695411167 163.0
37.700335023 156.0
37.705258879 141.0
37.710182735 126.0
37.715106591 154.0
37.720030447 161.0
37.724954303 146.0
37.729878159 155.0
37.734802015 147.0
37.739725871 151.0
37.744649727 165.0
37.749573583 160.0
37.754497440 161.0
37.759421296 162.0
37.764345152 167.0
37.769269008 154.0
37.774192864 151.0
37.779116720 184.0
37.784040576 163.0
37.788964432 173.0
37.793888288 195.0
37.798812144 177.0
37.803736000 183.0
37.808659856 176.0
37.813583712 185.0
37.818507568 181.0
37.823431424 190.0
37.828355280 178.0
37.833279136 184.0
37.838202992 197.0
37.843126848 179.0
37.848050704 211.0
37.852974560 196.0
37.857898416 170.0
37.862822272 204.0
37.867746128 160.0
37.872669984 192.0
37.877593840 209.0
37.882517696 204.0
37.887441552 218.0
37.892365408 194.0
37.897289264 210.0
37.902213120 213.0
37.907136976 226.0
37.912060832 188.0
37.916984688 202.0
37.921908544 227.0
37.926832400 230.0
37.931756256 237.0
37.936680112 212.0
37.941603968 214.0
37.946527824 229.0
37.951451680 226.0
37.956375536 219.0
37.961299392 259.0
37.966223248 212.0
37.971147104 235.0
37.976070960 245.0
37.980994816 235.0
37.985918672 255.0
37.990842528 237.0
37.995766384 280.0
38.000690240 284.0
38.005614096 263.0
38.010537952 240.0
38.015461808 224.0
38.020385664 246.0
38.025309520 276.0
38.030233376 293.0
38.035157232 293.0
38.040081088 286.0
38.045004944 276.0
38.049928800 247.0
38.054852656 286.0
38.059776512 271.0
38.064700368 275.0
38.069624224 305.0
38.074548080 301.0
38.079471936 297.0
38.084395792 295.0
38.089319648 322.0
38.094243504 281.0
38.099167360 262.0
38.104091216 244.0
38.109015072 304.0
38.113938928 296.0
38.118862784 325.0
38.123786640 309.0
38.128710496 300.0
38.133634352 305.0
38.138558208 289.0
38.143482064 287.0
38.148405920 293.0
38.153329776 345.0
38.158253632 346.0
38.163177488 357.0
38.168101344 308.0
38.173025200 337.0
38.177949056 319.0
38.182872912 302.0
38.187796768 306.0
38.192720624 310.0
38.197644480 314.0
38.202568336 312.0
38.207492192 376.0
38.212416048 321.0
38.217339904 302.0
38.222263760 363.0
38.227187616 355.0
38.232111472 338.0
38.237035328 312.0
38.241959184 346.0
38.246883040 353.0
38.251806897 313.0
38.256730753 386.0
38.261654609 357.0
38.266578465 343.0
38.271502321 335.0
38.276426177 314.0
38.281350033 330.0
38.286273889 369.0
38.291197745 349.0
38.296121601 347.0
38.301045457 312.0
38.305969313 350.0
38.310893169 322.0
38.315817025 342.0
38.320740881 337.0
38.325664737 354.0
38.330588593 334.0
38.335512449 354.0
38.340436305 334.0
38.345360161 323.0
38.350284017 316.0
38.355207873 368.0
38.360131729 343.0
38.365055585 340.0
38.369979441 328.0
38.374903297 349.0
38.379827153 309.0
38.384751009 331.0
38.389674865 371.0
38.394598721 312.0
38.399522577 320.0
38.404446433 336.0
38.409370289 317.0
38.414294145 336.0
38.419218001 318.0
38.424141857 343.0
38.429065713 304.0
38.433989569 351.0
38.438913425 372.0
38.443837281 272.0
38.448761137 327.0
38.453684993 317.0
38.458608849 324.0
38.463532705 312.0
38.468456561 337.0
38.473380417 310.0
38.478304273 335.0
38.483228129 302.0
38.488151985 323.0
38.493075841 300.0
38.497999697 302.0
38.502923553 323.0
38.507847409 320.0
38.512771265 264.0
38.517695121 307.0
38.522618977 298.0
38.527542833 288.0
38.532466689 279.0
38.537390545 326.0
38.542314401 295.0
38.547238257 294.0
38.552162113 301.0
38.557085969 308.0
38.562009825 270.0
38.566933681 299.0
38.571857537 296.0
38.576781393 281.0
38.581705249 276.0
38.586629105 286.0
38.591552961 289.0
38.596476817 279.0
38.601400673 264.0
38.606324529 288.0
38.611248385 289.0
38.616172241 269.0
38.621096097 312.0
38.626019953 270.0
38.630943809 238.0
38.635867665 235.0
38.640791521 243.0
38.645715377 245.0
38.650639233 247.0
38.655563089 232.0
38.660486945 258.0
38.665410801 257.0
38.670334657 230.0
38.675258513 220.0
38.680182369 276.0
38.685106225 198.0
38.690030081 230.0
38.694953937 232.0
38.699877793 238.0
38.704801649 233.0
38.709725505 259.0
38.714649361 227.0
38.719573217 208.0
38.724497073 222.0
38.729420929 216.0
38.734344785 226.0
38.739268641 217.0
38.744192497 218.0
38.749116353 190.0
38.754040210 209.0
38.758964066 195.0
38.763887922 180.0
38.768811778 201.0
38.773735634 227.0
38.778659490 185.0
38.783583346 215.0
38.788507202 233.0
38.793431058 164.0
38.798354914 199.0
38.803278770 200.0
38.808202626 191.0
38.813126482 185.0
38.818050338 206.0
38.822974194 194.0
38.827898050 170.0
38.832821906 185.0
38.837745762 203.0
38.842669618 186.0
38.847593474 183.0
38.852517330 182.0
38.857441186 184.0
38.862365042 177.0
38.867288898 159.0
38.872212754 178.0
38.877136610 181.0
38.882060466 183.0
38.886984322 182.0
38.891908178 145.0
38.896832034 191.0
38.901755890 176.0
38.906679746 172.0
38.911603602 172.0
38.916527458 176.0
38.921451314 169.0
38.926375170 172.0
38.931299026 178.0
38.936222882 148.0
38.941146738 157.0
38.946070594 169.0
38.950994450 148.0
38.955918306 164.0
38.960842162 164.0
38.965766018 146.0
38.970689874 174.0
38.975613730 149.0
38.980537586 157.0
38.985461442 147.0
38.990385298 148.0
38.995309154 149.0
39.000233010 154.0
39.005156866 126.0
39.010080722 133.0
39.015004578 153.0
39.019928434 155.0
39.024852290 149.0
39.029776146 161.0
39.034700002 150.0
39.039623858 163.0
39.044547714 142.0
39.049471570 147.0
39.054395426 154.0
39.059319282 158.0
39.064243138 155.0
39.069166994 133.0
39.074090850 148.0
39.079014706 142.0
39.083938562 146.0
39.088862418 163.0
39.093786274 158.0
39.098710130 158.0
39.103633986 153.0
39.108557842 137.0
39.113481698 140.0
39.118405554 164.0
39.123329410 143.0
39.128253266 160.0
39.133177122 133.0
39.138100978 149.0
39.143024834 119.0
39.147948690 139.0
39.152872546 143.0
39.157796402 144.0
39.162720258 112.0
39.167644114 130.0
39.172567970 124.0
39.177491826 128.0
39.182415682 120.0
39.187339538 126.0
39.192263394 136.0
39.197187250 142.0
39.202111106 147.0
39.207034962 125.0
39.211958818 136.0
39.216882674 146.0
39.221806530 118.0
39.226730386 132.0
39.231654242 123.0
39.236578098 125.0
39.241501954 139.0
39.246425810 126.0
39.251349667 117.0
39.256273523 127.0
39.261197379 153.0
39.266121235 124.0
39.271045091 151.0
39.275968947 129.0
39.280892803 142.0
39.285816659 134.0
39.290740515 145.0
39.295664371 122.0
39.300588227 150.0
39.305512083 136.0
39.310435939 115.0
39.315359795 138.0
39.320283651 142.0
39.325207507 127.0
39.330131363 147.0
39.335055219 137.0
39.339979075 121.0
39.344902931 129.0
39.349826787 123.0
39.354750643 131.0
39.359674499 117.0
39.364598355 111.0
39.369522211 111.0
39.374446067 113.0
39.379369923 132.0
39.384293779 125.0
39.389217635 126.0
39.394141491 139.0
39.399065347 117.0
39.403989203 112.0
39.408913059 122.0
39.413836915 122.0
39.418760771 131.0
39.423684627 126.0
39.428608483 133.0
39.433532339 138.0
39.438456195 129.0
39.443380051 141.0
39.448303907 142.0
39.453227763 115.0
39.458151619 136.0
39.463075475 130.0
39.467999331 124.0
39.472923187 117.0
39.477847043 126.0
39.482770899 123.0
39.487694755 115.0
39.492618611 127.0
39.497542467 119.0
39.502466323 140.0
39.507390179 114.0
39.512314035 144.0
39.517237891 133.0
39.522161747 109.0
39.527085603 139.0
39.532009459 139.0
39.536933315 115.0
39.541857171 121.0
39.546781027 117.0
39.551704883 129.0
39.556628739 125.0
39.561552595 115.0
39.566476451 111.0
39.571400307 129.0
39.576324163 115.0
39.581248019 125.0
39.586171875 135.0
39.591095731 120.0
39.596019587 130.0
39.600943443 134.0
39.605867299 141.0
39.610791155 113.0
39.615715011 134.0
39.620638867 121.0
39.625562723 126.0
39.630486579 110.0
39.635410435 128.0
39.640334291 122.0
39.645258147 122.0
39.650182003 121.0
39.655105859 122.0
39.660029715 124.0
39.664953571 117.0
39.669877427 119.0
39.674801283 144.0
39.679725139 134.0
39.684648995 128.0
39.689572851 113.0
39.694496707 131.0
39.699420563 121.0
39.704344419 149.0
39.709268275 117.0
39.714192131 111.0
39.719115987 113.0
39.724039843 119.0
39.728963699 128.0
39.733887555 115.0
39.738811411 106.0
39.743735267 121.0
39.748659123 112.0
39.753582980 119.0
39.758506836 125.0
39.763430692 104.0
39.768354548 136.0
39.773278404 113.0
39.778202260 144.0
39.783126116 122.0
39.788049972 114.0
39.792973828 123.0
39.797897684 121.0
39.802821540 126.0
39.807745396 139.0
39.812669252 120.0
39.817593108 133.0
39.822516964 129.0
39.827440820 103.0
39.832364676 130.0
39.837288532 128.0
39.842212388 135.0
39.847136244 128.0
39.852060100 136.0
39.856983956 126.0
39.861907812 119.0
39.866831668 111.0
39.871755524 110.0
39.876679380 119.0
39.881603236 100.0
39.886527092 151.0
39.891450948 117.0
39.896374804 118.0
39.901298660 102.0
39.906222516 138.0
39.911146372 148.0
39.916070228 127.0
39.920994084 121.0
39.925917940 136.0
39.930841796 128.0
39.935765652 106.0
39.940689508 127.0
39.945613364 130.0
39.950537220 125.0
39.955461076 138.0
39.960384932 117.0
39.965308788 136.0
39.970232644 123.0
39.975156500 126.0
39.980080356 119.0
39.985004212 145.0
39.989928068 98.0
39.994851924 123.0
39.999775780 111.0
40.004699636 134.0
40.009623492 138.0
40.014547348 131.0
40.019471204 120.0
40.024395060 126.0
40.029318916 126.0
40.034242772 133.0
40.039166628 109.0
40.044090484 129.0
40.049014340 133.0
40.053938196 140.0
40.058862052 126.0
40.063785908 119.0
40.068709764 114.0
40.073633620 127.0
40.078557476 129.0
40.083481332 132.0
40.088405188 132.0
40.093329044 120.0
40.098252900 133.0
40.103176756 128.0
40.108100612 114.0
40.113024468 131.0
40.117948324 119.0
40.122872180 127.0
40.127796036 132.0
40.132719892 97.0
40.137643748 129.0
40.142567604 115.0
40.147491460 118.0
40.152415316 128.0
40.157339172 117.0
40.162263028 122.0
40.167186884 139.0
40.172110740 130.0
40.177034596 123.0
40.181958452 136.0
40.186882308 134.0
40.191806164 104.0
40.196730020 124.0
40.201653876 135.0
40.206577732 136.0
40.211501588 126.0
40.216425444 120.0
40.221349300 133.0
40.226273156 105.0
40.231197012 134.0
40.236120868 131.0
40.241044724 120.0
40.245968580 127.0
40.250892437 154.0
40.255816293 143.0
40.260740149 133.0
40.265664005 124.0
40.270587861 139.0
40.275511717 138.0
40.280435573 123.0
40.285359429 114.0
40.290283285 123.0
40.295207141 151.0
40.300130997 128.0
40.305054853 112.0
40.309978709 140.0
40.314902565 140.0
40.319826421 143.0
40.324750277 132.0
40.329674133 108.0
40.334597989 119.0
40.339521845 137.0
40.344445701 140.0
40.349369557 118.0
40.354293413 142.0
40.359217269 139.0
40.364141125 139.0
40.369064981 131.0
40.373988837 137.0
40.378912693 123.0
40.383836549 122.0
40.388760405 127.0
40.393684261 148.0
40.398608117 139.0
40.403531973 136.0
40.408455829 135.0
40.413379685 134.0
40.418303541 114.0
40.423227397 125.0
40.428151253 126.0
40.433075109 126.0
40.437998965 133.0
40.442922821 125.0
40.447846677 133.0
40.452770533 113.0
40.457694389 141.0
40.462618245 122.0
40.467542101 159.0
40.472465957 130.0
40.477389813 141.0
40.482313669 141.0
40.487237525 135.0
40.492161381 159.0
40.497085237 150.0
40.502009093 136.0
40.506932949 150.0
40.511856805 139.0
40.516780661 137.0
40.521704517 120.0
40.526628373 135.0
40.531552229 135.0
40.536476085 139.0
40.541399941 154.0
40.546323797 154.0
40.551247653 139.0
40.556171509 153.0
40.561095365 152.0
40.566019221 135.0
40.570943077 143.0
40.575866933 141.0
40.580790789 154.0
40.585714645 152.0
40.590638501 153.0
40.595562357 147.0
40.600486213 140.0
40.605410069 115.0
40.610333925 141.0
40.615257781 137.0
40.620181637 143.0
40.625105493 132.0
40.630029349 149.0
40.634953205 140.0
40.639877061 141.0
40.644800917 156.0
40.649724773 150.0
40.654648629 115.0
40.659572485 160.0
40.664496341 178.0
40.669420197 158.0
40.674344053 132.0
40.679267909 145.0
40.684191765 141.0
40.689115621 150.0
40.694039477 147.0
40.698963333 153.0
40.703887189 151.0
40.708811045 156.0
40.713734901 179.0
40.718658757 155.0
40.723582613 165.0
40.728506469 141.0
40.733430325 161.0
40.738354181 173.0
40.743278037 152.0
40.748201893 158.0
40.753125750 153.0
40.758049606 142.0
40.762973462 169.0
40.767897318 186.0
40.772821174 153.0
40.777745030 165.0
40.782668886 156.0
40.787592742 183.0
40.792516598 135.0
40.797440454 180.0
40.802364310 174.0
40.807288166 168.0
40.812212022 188.0
40.817135878 154.0
40.822059734 148.0
40.826983590 149.0
40.831907446 191.0
40.836831302 172.0
40.841755158 162.0
40.846679014 161.0
40.851602870 192.0
40.856526726 164.0
40.861450582 180.0
40.866374438 154.0
40.871298294 160.0
40.876222150 178.0
40.881146006 177.0
40.886069862 172.0
40.890993718 175.0
40.895917574 150.0
40.900841430 165.0
40.905765286 198.0
40.910689142 164.0
40.915612998 177.0
40.920536854 171.0
40.925460710 184.0
40.930384566 172.0
40.935308422 186.0
40.940232278 184.0
40.945156134 185.0
40.950079990 172.0
40.955003846 179.0
40.959927702 189.0
40.964851558 185.0
40.969775414 178.0
40.974699270 209.0
40.979623126 172.0
40.984546982 167.0
40.989470838 183.0
40.994394694 153.0
40.999318550 175.0
41.004242406 196.0
41.009166262 197.0
41.014090118 206.0
41.019013974 203.0
41.023937830 180.0
41.028861686 198.0
41.033785542 170.0
41.038709398 187.0
41.043633254 214.0
41.048557110 206.0
41.053480966 187.0
41.058404822 224.0
41.063328678 185.0
41.068252534 191.0
41.073176390 194.0
41.078100246 199.0
41.083024102 184.0
41.087947958 191.0
41.092871814 189.0
41.097795670 213.0
41.102719526 206.0
41.107643382 192.0
41.112567238 180.0
41.117491094 200.0
41.122414950 222.0
41.127338806 260.0
41.132262662 203.0
41.137186518 201.0
41.142110374 219.0
41.147034230 215.0
41.151958086 222.0
41.156881942 229.0
41.161805798 210.0
41.166729654 255.0
41.171653510 218.0
41.176577366 204.0
41.181501222 213.0
41.186425078 215.0
41.191348934 221.0
41.196272790 227.0
41.201196646 313.0
41.206120502 215.0
41.211044358 272.0
41.215968214 269.0
41.220892070 259.0
41.225815926 275.0
41.230739782 295.0
41.235663638 287.0
41.240587494 280.0
41.245511350 316.0
41.250435207 288.0
41.255359063 311.0
41.260282919 299.0
41.265206775 317.0
41.270130631 317.0
41.275054487 306.0
41.279978343 357.0
41.284902199 300.0
41.289826055 352.0
41.294749911 333.0
41.299673767 340.0
41.304597623 322.0
41.309521479 345.0
41.314445335 342.0
41.319369191 352.0
41.324293047 381.0
41.329216903 391.0
41.334140759 342.0
41.339064615 340.0
41.343988471 387.0
41.348912327 413.0
41.353836183 400.0
41.358760039 454.0
41.363683895 441.0
41.368607751 440.0
41.373531607 492.0
41.378455463 568.0
41.383379319 561.0
41.388303175 643.0
41.393227031 666.0
41.398150887 725.0
41.403074743 781.0
41.407998599 835.0
41.412922455 819.0
41.417846311 868.0
41.422770167 908.0
41.427694023 972.0
41.432617879 997.0
41.437541735 944.0
41.442465591 1027.0
41.447389447 1022.0
41.452313303 984.0
41.457237159 1071.0
41.462161015 1031.0
41.467084871 999.0
41.472008727 1043.0
41.476932583 1024.0
41.481856439 1038.0
41.486780295 1053.0
41.491704151 1034.0
41.496628007 1051.0
41.501551863 1230.0
41.506475719 1246.0
41.511399575 1240.0
41.516323431 1443.0
41.521247287 1530.0
41.526171143 1597.0
41.531094999 1852.0
41.536018855 2159.0
41.540942711 2428.0
41.545866567 2777.0
41.550790423 3208.0
41.555714279 3819.0
41.560638135 4785.0
41.565561991 6178.0
41.570485847 8234.0
41.575409703 12025.0
41.580333559 18679.0
41.585257415 29505.0
41.590181271 42464.0
41.595105127 53527.0
41.600028983 60239.0
41.604952839 64214.0
41.609876695 66324.0
41.614800551 67320.0
41.619724407 68361.0
41.624648263 67822.0
41.629572119 66625.0
41.634495975 61988.0
41.639419831 53756.0
41.644343687 41126.0
41.649267543 27945.0
41.654191399 18675.0
41.659115255 13117.0
41.664039111 10072.0
41.668962967 8240.0
41.673886823 7400.0
41.678810679 7707.0
41.683734535 9141.0
41.688658391 12127.0
41.693582247 16987.0
41.698506103 22536.0
41.703429959 27372.0
41.708353815 30807.0
41.713277671 32751.0
41.718201527 34499.0
41.723125383 34956.0
41.728049239 34443.0
41.732973095 34443.0
41.737896951 32872.0
41.742820807 30668.0
41.747744663 26588.0
41.752668520 20876.0
41.757592376 14887.0
41.762516232 10447.0
41.767440088 7083.0
41.772363944 5201.0
41.777287800 3736.0
41.782211656 3077.0
41.787135512 2459.0
41.792059368 2256.0
41.796983224 1821.0
41.801907080 1671.0
41.806830936 1505.0
41.811754792 1331.0
41.816678648 1206.0
41.821602504 1157.0
41.826526360 1116.0
41.831450216 1014.0
41.836374072 966.0
41.841297928 843.0
41.846221784 871.0
41.851145640 775.0
41.856069496 772.0
41.860993352 766.0
41.865917208 671.0
41.870841064 658.0
41.875764920 612.0
41.880688776 659.0
41.885612632 608.0
41.890536488 590.0
41.895460344 544.0
41.900384200 580.0
41.905308056 501.0
41.910231912 540.0
41.915155768 493.0
41.920079624 499.0
41.925003480 484.0
41.929927336 458.0
41.934851192 487.0
41.939775048 461.0
41.944698904 434.0
41.949622760 418.0
41.954546616 453.0
41.959470472 422.0
41.964394328 408.0
41.969318184 371.0
41.974242040 360.0
41.979165896 359.0
41.984089752 394.0
41.989013608 348.0
41.993937464 337.0
41.998861320 346.0
42.003785176 353.0
42.008709032 358.0
42.013632888 343.0
42.018556744 340.0
42.023480600 305.0
42.028404456 351.0
42.033328312 289.0
42.038252168 306.0
42.043176024 309.0
42.048099880 321.0
42.053023736 317.0
42.057947592 280.0
42.062871448 285.0
42.067795304 291.0
42.072719160 260.0
42.077643016 284.0
42.082566872 292.0
42.087490728 255.0
42.092414584 209.0
42.097338440 261.0
42.102262296 286.0
42.107186152 291.0
42.112110008 232.0
42.117033864 268.0
42.121957720 255.0
42.126881576 255.0
42.131805432 208.0
42.136729288 198.0
42.141653144 210.0
42.146577000 223.0
42.151500856 220.0
42.156424712 231.0
42.161348568 213.0
42.166272424 194.0
42.171196280 225.0
42.176120136 192.0
42.181043992 214.0
42.185967848 186.0
42.190891704 183.0
42.195815560 230.0
42.200739416 193.0
42.205663272 210.0
42.210587128 193.0
42.215510984 199.0
42.220434840 198.0
42.225358696 172.0
42.230282552 202.0
42.235206408 187.0
42.240130264 183.0
42.245054120 164.0
42.249977977 176.0
42.254901833 198.0
42.259825689 170.0
42.264749545 190.0
42.269673401 181.0
42.274597257 177.0
42.279521113 163.0
42.284444969 166.0
42.289368825 170.0
42.294292681 174.0
42.299216537 166.0
42.304140393 174.0
42.309064249 186.0
42.313988105 188.0
42.318911961 151.0
42.323835817 177.0
42.328759673 168.0
42.333683529 144.0
42.338607385 169.0
42.343531241 171.0
42.348455097 177.0
42.353378953 163.0
42.358302809 159.0
42.363226665 169.0
42.368150521 158.0
42.373074377 156.0
42.377998233 169.0
42.382922089 150.0
42.387845945 152.0
42.392769801 172.0
42.397693657 177.0
42.402617513 161.0
42.407541369 157.0
42.412465225 145.0
42.417389081 160.0
42.422312937 130.0
42.427236793 142.0
42.432160649 149.0
42.437084505 164.0
42.442008361 144.0
42.446932217 155.0
42.451856073 166.0
42.456779929 145.0
42.461703785 156.0
42.466627641 138.0
42.471551497 140.0
42.476475353 141.0
42.481399209 151.0
42.486323065 159.0
42.491246921 145.0
42.496170777 146.0
42.501094633 153.0
42.506018489 137.0
42.510942345 148.0
42.515866201 132.0
42.520790057 139.0
42.525713913 156.0
42.530637769 143.0
42.535561625 133.0
42.540485481 139.0
42.545409337 146.0
42.550333193 146.0
42.555257049 139.0
42.560180905 155.0
42.565104761 136.0
42.570028617 165.0
42.574952473 154.0
42.579876329 170.0
42.584800185 143.0
42.589724041 128.0
42.594647897 133.0
42.599571753 138.0
42.604495609 149.0
42.609419465 131.0
42.614343321 150.0
42.619267177 151.0
42.624191033 137.0
42.629114889 159.0
42.634038745 137.0
42.638962601 144.0
42.643886457 157.0
42.648810313 142.0
42.653734169 121.0
42.658658025 150.0
42.663581881 139.0
42.668505737 114.0
42.673429593 133.0
42.678353449 155.0
42.683277305 116.0
42.688201161 120.0
42.693125017 127.0
42.698048873 135.0
42.702972729 145.0
42.707896585 133.0
42.712820441 152.0
42.717744297 146.0
42.722668153 127.0
42.727592009 127.0
42.732515865 129.0
42.737439721 135.0
42.742363577 110.0
42.747287433 139.0
42.752211290 134.0
42.757135146 121.0
42.762059002 132.0
42.766982858 132.0
42.771906714 101.0
42.776830570 143.0
42.781754426 151.0
42.786678282 112.0
42.791602138 120.0
42.796525994 118.0
42.801449850 120.0
42.806373706 144.0
42.811297562 134.0
42.816221418 116.0
42.821145274 128.0
42.826069130 134.0
42.830992986 144.0
42.835916842 132.0
42.840840698 132.0
42.845764554 141.0
42.850688410 138.0
42.855612266 122.0
42.860536122 120.0
42.865459978 141.0
42.870383834 133.0
42.875307690 140.0
42.880231546 160.0
42.885155402 137.0
42.890079258 134.0
42.895003114 140.0
42.899926970 132.0
42.904850826 153.0
42.909774682 134.0
42.914698538 122.0
42.919622394 135.0
42.924546250 141.0
42.929470106 133.0
42.934393962 123.0
42.939317818 151.0
42.944241674 125.0
42.949165530 146.0
42.954089386 118.0
42.959013242 134.0
42.963937098 138.0
42.968860954 109.0
42.973784810 116.0
42.978708666 115.0
42.983632522 114.0
42.988556378 152.0
42.993480234 119.0
42.998404090 132.0
43.003327946 129.0
43.008251802 125.0
43.013175658 133.0
43.018099514 108.0
43.023023370 112.0
43.027947226 134.0
43.032871082 120.0
43.037794938 129.0
43.042718794 103.0
43.047642650 131.0
43.052566506 93.0
43.057490362 140.0
43.062414218 126.0
43.067338074 142.0
43.072261930 134.0
43.077185786 127.0
43.082109642 125.0
43.087033498 116.0
43.091957354 127.0
43.096881210 122.0
43.101805066 128.0
43.106728922 116.0
43.111652778 122.0
43.116576634 147.0
43.121500490 113.0
43.126424346 131.0
43.131348202 130.0
43.136272058 128.0
43.141195914 145.0
43.146119770 134.0
43.151043626 114.0
43.155967482 117.0
43.160891338 126.0
43.165815194 119.0
43.170739050 130.0
43.175662906 108.0
43.180586762 104.0
43.185510618 128.0
43.190434474 136.0
43.195358330 132.0
43.200282186 115.0
43.205206042 128.0
43.210129898 138.0
43.215053754 131.0
43.219977610 110.0
43.224901466 154.0
43.229825322 124.0
43.234749178 119.0
43.239673034 121.0
43.244596890 124.0
43.249520747 136.0
43.254444603 113.0
43.259368459 114.0
43.264292315 151.0
43.269216171 112.0
43.274140027 123.0
43.279063883 125.0
43.283987739 114.0
43.288911595 117.0
43.293835451 110.0
43.298759307 126.0
43.303683163 122.0
43.308607019 127.0
43.313530875 131.0
43.318454731 126.0
43.323378587 123.0
43.328302443 115.0
43.333226299 134.0
43.338150155 136.0
43.343074011 109.0
43.347997867 122.0
43.352921723 129.0
43.357845579 123.0
43.362769435 120.0
43.367693291 127.0
43.372617147 131.0
43.377541003 142.0
43.382464859 125.0
43.387388715 131.0
43.392312571 121.0
43.397236427 126.0
43.402160283 123.0
43.407084139 132.0
43.412007995 128.0
43.416931851 122.0
43.421855707 131.0
43.426779563 122.0
43.431703419 133.0
43.436627275 154.0
43.441551131 125.0
43.446474987 132.0
43.451398843 125.0
43.456322699 135.0
43.461246555 119.0
43.466170411 136.0
43.471094267 99.0
43.476018123 150.0
43.480941979 101.0
43.485865835 115.0
43.490789691 109.0
43.495713547 112.0
43.500637403 130.0
43.505561259 132.0
43.510485115 139.0
43.515408971 123.0
43.520332827 132.0
43.525256683 119.0
43.530180539 138.0
43.535104395 117.0
43.540028251 123.0
43.544952107 124.0
43.549875963 113.0
43.554799819 127.0
43.559723675 124.0
43.564647531 121.0
43.569571387 134.0
43.574495243 129.0
43.579419099 142.0
43.584342955 117.0
43.589266811 128.0
43.594190667 146.0
43.599114523 138.0
43.604038379 140.0
43.608962235 126.0
43.613886091 135.0
43.618809947 148.0
43.623733803 151.0
43.628657659 121.0
43.633581515 130.0
43.638505371 118.0
43.643429227 132.0
43.648353083 129.0
43.653276939 135.0
43.658200795 130.0
43.663124651 137.0
43.668048507 101.0
43.672972363 125.0
43.677896219 132.0
43.682820075 129.0
43.687743931 140.0
43.692667787 121.0
43.697591643 128.0
43.702515499 138.0
43.707439355 136.0
43.712363211 156.0
43.717287067 126.0
43.722210923 133.0
43.727134779 124.0
43.732058635 156.0
43.736982491 114.0
43.741906347 117.0
43.746830203 151.0
43.751754060 132.0
43.756677916 114.0
43.761601772 133.0
43.766525628 134.0
43.771449484 117.0
43.776373340 122.0
43.781297196 132.0
43.786221052 105.0
43.791144908 148.0
43.796068764 124.0
43.800992620 141.0
43.805916476 124.0
43.810840332 142.0
43.815764188 110.0
43.820688044 130.0
43.825611900 129.0
43.830535756 139.0
43.835459612 143.0
43.840383468 123.0
43.845307324 140.0
43.850231180 146.0
43.855155036 122.0
43.860078892 133.0
43.865002748 128.0
43.869926604 152.0
43.874850460 124.0
43.879774316 151.0
43.884698172 119.0
43.889622028 126.0
43.894545884 128.0
43.899469740 138.0
43.904393596 136.0
43.909317452 148.0
43.914241308 137.0
43.919165164 139.0
43.924089020 145.0
43.929012876 140.0
43.933936732 158.0
43.938860588 137.0
43.943784444 135.0
43.948708300 127.0
43.953632156 145.0
43.958556012 122.0
43.963479868 144.0
43.968403724 140.0
43.973327580 139.0
43.978251436 159.0
43.983175292 149.0
43.988099148 122.0
43.993023004 132.0
43.997946860 140.0
44.002870716 149.0
44.007794572 156.0
44.012718428 147.0
44.017642284 149.0
44.022566140 175.0
44.027489996 139.0
44.032413852 135.0
44.037337708 138.0
44.042261564 140.0
44.047185420 114.0
44.052109276 135.0
44.057033132 163.0
44.061956988 165.0
44.066880844 137.0
44.071804700 154.0
44.076728556 143.0
44.081652412 166.0
44.086576268 153.0
44.091500124 166.0
44.096423980 123.0
44.101347836 152.0
44.106271692 145.0
44.111195548 155.0
44.116119404 145.0
44.121043260 163.0
44.125967116 153.0
44.130890972 143.0
44.135814828 162.0
44.140738684 157.0
44.145662540 147.0
44.150586396 147.0
44.155510252 160.0
44.160434108 157.0
44.165357964 158.0
44.170281820 170.0
44.175205676 151.0
44.180129532 155.0
44.185053388 156.0
44.189977244 188.0
44.194901100 184.0
44.199824956 175.0
44.204748812 181.0
44.209672668 176.0
44.214596524 148.0
44.219520380 183.0
44.224444236 182.0
44.229368092 199.0
44.234291948 194.0
44.239215804 163.0
44.244139660 177.0
44.249063517 184.0
44.253987373 200.0
44.258911229 166.0
44.263835085 208.0
44.268758941 216.0
44.273682797 211.0
44.278606653 202.0
44.283530509 205.0
44.288454365 222.0
44.293378221 218.0
44.298302077 203.0
44.303225933 207.0
44.308149789 217.0
44.313073645 219.0
44.317997501 202.0
44.322921357 214.0
44.327845213 231.0
44.332769069 258.0
44.337692925 233.0
44.342616781 227.0
44.347540637 239.0
44.352464493 272.0
44.357388349 267.0
44.362312205 239.0
44.367236061 295.0
44.372159917 281.0
44.377083773 272.0
44.382007629 272.0
44.386931485 272.0
44.391855341 294.0
44.396779197 321.0
44.401703053 308.0
44.406626909 303.0
44.411550765 290.0
44.416474621 279.0
44.421398477 263.0
44.426322333 299.0
44.431246189 279.0
44.436170045 293.0
44.441093901 274.0
44.446017757 262.0
44.450941613 276.0
44.455865469 265.0
44.460789325 267.0
44.465713181 273.0
44.470637037 244.0
44.475560893 256.0
44.480484749 245.0
44.485408605 285.0
44.490332461 241.0
44.495256317 232.0
44.500180173 271.0
44.505104029 243.0
44.510027885 236.0
44.514951741 255.0
44.519875597 264.0
44.524799453 236.0
44.529723309 220.0
44.534647165 241.0
44.539571021 227.0
44.544494877 235.0
44.549418733 206.0
44.554342589 231.0
44.559266445 206.0
44.564190301 195.0
44.569114157 189.0
44.574038013 200.0
44.578961869 206.0
44.583885725 193.0
44.588809581 193.0
44.593733437 231.0
44.598657293 179.0
44.603581149 177.0
44.608505005 193.0
44.613428861 183.0
44.618352717 195.0
44.623276573 180.0
44.628200429 160.0
44.633124285 174.0
44.638048141 164.0
44.642971997 170.0
44.647895853 183.0
44.652819709 166.0
44.657743565 142.0
44.662667421 160.0
44.667591277 152.0
44.672515133 162.0
44.677438989 147.0
44.682362845 126.0
44.687286701 141.0
44.692210557 139.0
44.697134413 141.0
44.702058269 137.0
44.706982125 160.0
44.711905981 160.0
44.716829837 162.0
44.721753693 137.0
44.726677549 140.0
44.731601405 132.0
44.736525261 131.0
44.741449117 134.0
44.746372973 161.0
44.751296830 157.0
44.756220686 127.0
44.761144542 129.0
44.766068398 136.0
44.770992254 140.0
44.775916110 140.0
44.780839966 135.0
44.785763822 137.0
44.790687678 122.0
44.795611534 135.0
44.800535390 112.0
44.805459246 136.0
44.810383102 140.0
44.815306958 112.0
44.820230814 133.0
44.825154670 128.0
44.830078526 152.0
44.835002382 132.0
44.839926238 124.0
44.844850094 130.0
44.849773950 139.0
44.854697806 127.0
44.859621662 115.0
44.864545518 121.0
44.869469374 119.0
44.874393230 126.0
44.879317086 134.0
44.884240942 149.0
44.889164798 134.0
44.894088654 114.0
44.899012510 136.0
44.903936366 146.0
44.908860222 121.0
44.913784078 127.0
44.918707934 134.0
44.923631790 126.0
44.928555646 124.0
44.933479502 128.0
44.938403358 113.0
44.943327214 120.0
44.948251070 117.0
44.953174926 114.0
44.958098782 117.0
44.963022638 118.0
44.967946494 112.0
44.972870350 126.0
44.977794206 113.0
44.982718062 136.0
44.987641918 135.0
44.992565774 135.0
44.997489630 114.0
