35.002061930 153.0
35.006985786 136.0
35.011909642 122.0
35.016833498 139.0
35.021757354 122.0
35.026681210 134.0
35.031605066 133.0
35.036528922 128.0
35.041452778 140.0
35.046376634 139.0
35.051300490 137.0
35.056224346 143.0
35.061148202 121.0
35.066072058 151.0
35.070995914 119.0
35.075919770 131.0
35.080843626 122.0
35.085767482 140.0
35.090691338 139.0
35.095615194 136.0
35.100539050 130.0
35.105462906 153.0
35.110386762 125.0
35.115310618 149.0
35.120234474 134.0
35.125158330 134.0
35.130082186 138.0
35.135006042 133.0
35.139929898 135.0
35.144853754 145.0
35.149777610 132.0
35.154701466 131.0
35.159625322 136.0
35.164549178 131.0
35.169473034 121.0
35.174396890 144.0
35.179320746 135.0
35.184244602 144.0
35.189168458 142.0
35.194092314 152.0
35.199016170 130.0
35.203940026 123.0
35.208863882 148.0
35.213787738 141.0
35.218711594 126.0
35.223635450 126.0
35.228559306 137.0
35.233483162 138.0
35.238407018 102.0
35.243330874 126.0
35.248254730 125.0
35.253178587 147.0
35.258102443 140.0
35.263026299 134.0
35.267950155 131.0
35.272874011 136.0
35.277797867 145.0
35.282721723 120.0
35.287645579 139.0
35.292569435 128.0
35.297493291 118.0
35.302417147 154.0
35.307341003 149.0
35.312264859 137.0
35.317188715 159.0
35.322112571 128.0
35.327036427 135.0
35.331960283 130.0
35.336884139 132.0
35.341807995 119.0
35.346731851 142.0
35.351655707 148.0
35.356579563 146.0
35.361503419 134.0
35.366427275 137.0
35.371351131 138.0
35.376274987 130.0
35.381198843 129.0
35.386122699 132.0
35.391046555 143.0
35.395970411 126.0
35.400894267 129.0
35.405818123 113.0
35.410741979 135.0
35.415665835 126.0
35.420589691 145.0
35.425513547 131.0
35.430437403 149.0
35.435361259 149.0
35.440285115 137.0
35.445208971 132.0
35.450132827 146.0
35.455056683 131.0
35.459980539 133.0
35.464904395 115.0
35.469828251 119.0
35.474752107 128.0
35.479675963 145.0
35.484599819 146.0
35.489523675 135.0
35.494447531 125.0
35.499371387 129.0
35.504295243 127.0
35.509219099 123.0
35.514142955 127.0
35.519066811 130.0
35.523990667 130.0
35.528914523 130.0
35.533838379 144.0
35.538762235 114.0
35.543686091 132.0
35.548609947 141.0
35.553533803 142.0
35.558457659 110.0
35.563381515 128.0
35.568305371 142.0
35.573229227 154.0
35.578153083 137.0
35.583076939 146.0
35.588000795 132.0
35.592924651 133.0
35.597848507 129.0
35.602772363 117.0
35.607696219 152.0
35.612620075 136.0
35.617543931 143.0
35.622467787 117.0
35.627391643 127.0
35.632315499 129.0
35.637239355 133.0
35.642163211 145.0
35.647087067 126.0
35.652010923 138.0
35.656934779 120.0
35.661858635 138.0
35.666782491 137.0
35.671706347 133.0
35.676630203 133.0
35.681554059 126.0
35.686477915 125.0
35.691401771 141.0
35.696325627 143.0
35.701249483 138.0
35.706173339 137.0
35.711097195 111.0
35.716021051 120.0
35.720944907 139.0
35.725868763 125.0
35.730792619 128.0
35.735716475 146.0
35.740640331 141.0
35.745564187 130.0
35.750488043 129.0
35.755411900 142.0
35.760335756 138.0
35.765259612 137.0
35.770183468 142.0
35.775107324 138.0
35.780031180 151.0
35.784955036 149.0
35.789878892 130.0
35.794802748 138.0
35.799726604 128.0
35.804650460 135.0
35.809574316 141.0
35.814498172 141.0
35.819422028 151.0
35.824345884 128.0
35.829269740 134.0
35.834193596 144.0
35.839117452 140.0
35.844041308 135.0
35.848965164 127.0
35.853889020 126.0
35.858812876 120.0
35.863736732 138.0
35.868660588 133.0
35.873584444 126.0
35.878508300 119.0
35.883432156 151.0
35.888356012 129.0
35.893279868 139.0
35.898203724 142.0
35.903127580 139.0
35.908051436 133.0
35.912975292 140.0
35.917899148 136.0
35.922823004 138.0
35.927746860 139.0
35.932670716 134.0
35.937594572 132.0
35.942518428 146.0
35.947442284 130.0
35.952366140 155.0
35.957289996 133.0
35.962213852 127.0
35.967137708 140.0
35.972061564 134.0
35.976985420 122.0
35.981909276 140.0
35.986833132 136.0
35.991756988 144.0
35.996680844 144.0
36.001604700 148.0
36.006528556 138.0
36.011452412 120.0
36.016376268 140.0
36.021300124 130.0
36.026223980 125.0
36.031147836 133.0
36.036071692 134.0
36.040995548 147.0
36.045919404 142.0
36.050843260 129.0
36.055767116 124.0
36.060690972 122.0
36.065614828 138.0
36.070538684 142.0
36.075462540 137.0
36.080386396 137.0
36.085310252 134.0
36.090234108 121.0
36.095157964 134.0
36.100081820 145.0
36.105005676 146.0
36.109929532 138.0
36.114853388 124.0
36.119777244 120.0
36.124701100 138.0
36.129624956 143.0
36.134548812 147.0
36.139472668 158.0
36.144396524 138.0
36.149320380 135.0
36.154244236 136.0
36.159168092 130.0
36.164091948 144.0
36.169015804 137.0
36.173939660 137.0
36.178863516 123.0
36.183787372 150.0
36.188711228 133.0
36.193635084 146.0
36.198558940 143.0
36.203482796 129.0
36.208406652 144.0
36.213330508 128.0
36.218254364 122.0
36.223178220 139.0
36.228102076 168.0
36.233025932 112.0
36.237949788 116.0
36.242873644 148.0
36.247797500 150.0
36.252721357 118.0
36.257645213 138.0
36.262569069 134.0
36.267492925 134.0
36.272416781 143.0
36.277340637 147.0
36.282264493 122.0
36.287188349 125.0
36.292112205 117.0
36.297036061 113.0
36.301959917 137.0
36.306883773 142.0
36.311807629 148.0
36.316731485 121.0
36.321655341 114.0
36.326579197 134.0
36.331503053 145.0
36.336426909 141.0
36.341350765 131.0
36.346274621 141.0
36.351198477 133.0
36.356122333 133.0
36.361046189 138.0
36.365970045 135.0
36.370893901 133.0
36.375817757 142.0
36.380741613 141.0
36.385665469 128.0
36.390589325 141.0
36.395513181 119.0
36.400437037 134.0
36.405360893 137.0
36.410284749 138.0
36.415208605 146.0
36.420132461 112.0
36.425056317 134.0
36.429980173 125.0
36.434904029 117.0
36.439827885 126.0
36.444751741 143.0
36.449675597 131.0
36.454599453 132.0
36.459523309 145.0
36.464447165 117.0
36.469371021 142.0
36.474294877 143.0
36.479218733 127.0
36.484142589 144.0
36.489066445 153.0
36.493990301 131.0
36.498914157 113.0
36.503838013 139.0
36.508761869 154.0
36.513685725 135.0
36.518609581 131.0
36.523533437 135.0
36.528457293 138.0
36.533381149 143.0
36.538305005 112.0
36.543228861 113.0
36.548152717 137.0
36.553076573 160.0
36.558000429 145.0
36.562924285 120.0
36.567848141 173.0
36.572771997 140.0
36.577695853 136.0
36.582619709 149.0
36.587543565 152.0
36.592467421 128.0
36.597391277 131.0
36.602315133 135.0
36.607238989 134.0
36.612162845 117.0
36.617086701 125.0
36.622010557 130.0
36.626934413 116.0
36.631858269 153.0
36.636782125 145.0
36.641705981 153.0
36.646629837 146.0
36.651553693 116.0
36.656477549 118.0
36.661401405 126.0
36.666325261 124.0
36.671249117 143.0
36.676172973 132.0
36.681096829 126.0
36.686020685 125.0
36.690944541 120.0
36.695868397 140.0
36.700792253 141.0
36.705716109 148.0
36.710639965 145.0
36.715563821 134.0
36.720487677 131.0
36.725411533 139.0
36.730335389 149.0
36.735259245 129.0
36.740183101 142.0
36.745106957 144.0
36.750030813 127.0
36.754954670 134.0
36.759878526 145.0
36.764802382 137.0
36.769726238 129.0
36.774650094 121.0
36.779573950 141.0
36.784497806 131.0
36.789421662 147.0
36.794345518 112.0
36.799269374 142.0
36.804193230 120.0
36.809117086 129.0
36.814040942 128.0
36.818964798 148.0
36.823888654 146.0
36.828812510 129.0
36.833736366 136.0
36.838660222 148.0
36.843584078 117.0
36.848507934 135.0
36.853431790 120.0
36.858355646 115.0
36.863279502 134.0
36.868203358 141.0
36.873127214 142.0
36.878051070 125.0
36.882974926 137.0
36.887898782 115.0
36.892822638 133.0
36.897746494 123.0
36.902670350 132.0
36.907594206 124.0
36.912518062 150.0
36.917441918 157.0
36.922365774 140.0
36.927289630 130.0
36.932213486 142.0
36.937137342 127.0
36.942061198 131.0
36.946985054 126.0
36.951908910 143.0
36.956832766 121.0
36.961756622 142.0
36.966680478 160.0
36.971604334 122.0
36.976528190 157.0
36.981452046 132.0
36.986375902 142.0
36.991299758 140.0
36.996223614 124.0
37.001147470 141.0
37.006071326 146.0
37.010995182 133.0
37.015919038 157.0
37.020842894 154.0
37.025766750 144.0
37.030690606 133.0
37.035614462 134.0
37.040538318 130.0
37.045462174 143.0
37.050386030 144.0
37.055309886 123.0
37.060233742 134.0
37.065157598 144.0
37.070081454 134.0
37.075005310 156.0
37.079929166 113.0
37.084853022 134.0
37.089776878 143.0
37.094700734 148.0
37.099624590 147.0
37.104548446 120.0
37.109472302 164.0
37.114396158 138.0
37.119320014 133.0
37.124243870 135.0
37.129167726 145.0
37.134091582 151.0
37.139015438 164.0
37.143939294 151.0
37.148863150 126.0
37.153787006 137.0
37.158710862 126.0
37.163634718 142.0
37.168558574 119.0
37.173482430 139.0
37.178406286 134.0
37.183330142 143.0
37.188253998 135.0
37.193177854 152.0
37.198101710 150.0
37.203025566 122.0
37.207949422 144.0
37.212873278 136.0
37.217797134 147.0
37.222720990 139.0
37.227644846 122.0
37.232568702 154.0
37.237492558 151.0
37.242416414 129.0
37.247340270 137.0
37.252264127 144.0
37.257187983 123.0
37.262111839 134.0
37.267035695 142.0
37.271959551 133.0
37.276883407 137.0
37.281807263 133.0
37.286731119 117.0
37.291654975 152.0
37.296578831 153.0
37.301502687 141.0
37.306426543 141.0
37.311350399 133.0
37.316274255 146.0
37.321198111 143.0
37.326121967 129.0
37.331045823 141.0
37.335969679 160.0
37.340893535 136.0
37.345817391 116.0
37.350741247 148.0
37.355665103 155.0
37.360588959 114.0
37.365512815 134.0
37.370436671 127.0
37.375360527 144.0
37.380284383 160.0
37.385208239 143.0
37.390132095 165.0
37.395055951 148.0
37.399979807 162.0
37.404903663 157.0
37.409827519 187.0
37.414751375 199.0
37.419675231 221.0
37.424599087 270.0
37.429522943 293.0
37.434446799 305.0
37.439370655 303.0
37.444294511 308.0
37.449218367 372.0
37.454142223 325.0
37.459066079 322.0
37.463989935 315.0
37.468913791 290.0
37.473837647 297.0
37.478761503 256.0
37.483685359 209.0
37.488609215 198.0
37.493533071 175.0
37.498456927 172.0
37.503380783 155.0
37.508304639 154.0
37.513228495 149.0
37.518152351 184.0
37.523076207 155.0
37.528000063 128.0
37.532923919 139.0
37.537847775 173.0
37.542771631 169.0
37.547695487 156.0
37.552619343 148.0
37.557543199 151.0
37.562467055 141.0
37.567390911 148.0
37.572314767 134.0
37.577238623 155.0
37.582162479 136.0
37.587086335 128.0
37.592010191 149.0
37.596934047 133.0
37.601857903 139.0
37.606781759 156.0
37.611705615 150.0
37.616629471 154.0
37.621553327 140.0
37.626477183 152.0
37.631401039 139.0
37.636324895 119.0
37.641248751 159.0
37.646172607 169.0
37.651096463 140.0
37.656020319 149.0
37.660944175 150.0
37.665868031 163.0
37.670791887 137.0
37.675715743 139.0
37.680639599 136.0
37.685563455 138.0
37.690487311 125.0
37.695411167 134.0
37.700335023 160.0
37.705258879 156.0
37.710182735 141.0
37.715106591 147.0
37.720030447 132.0
37.724954303 136.0
37.729878159 143.0
37.734802015 149.0
37.739725871 141.0
37.744649727 152.0
37.749573583 143.0
37.754497440 153.0
37.759421296 161.0
37.764345152 152.0
37.769269008 140.0
37.774192864 134.0
37.779116720 140.0
37.784040576 138.0
37.788964432 148.0
37.793888288 140.0
37.798812144 133.0
37.803736000 140.0
37.808659856 146.0
37.813583712 153.0
37.818507568 176.0
37.823431424 128.0
37.828355280 137.0
37.833279136 126.0
37.838202992 163.0
37.843126848 147.0
37.848050704 140.0
37.852974560 173.0
37.857898416 149.0
37.862822272 137.0
37.867746128 143.0
37.872669984 151.0
37.877593840 139.0
37.882517696 161.0
37.887441552 164.0
37.892365408 133.0
37.897289264 135.0
37.902213120 140.0
37.907136976 136.0
37.912060832 139.0
37.916984688 145.0
37.921908544 154.0
37.926832400 155.0
37.931756256 163.0
37.936680112 137.0
37.941603968 160.0
37.946527824 185.0
37.951451680 160.0
37.956375536 171.0
37.961299392 139.0
37.966223248 137.0
37.971147104 153.0
37.976070960 145.0
37.980994816 119.0
37.985918672 156.0
37.990842528 163.0
37.995766384 153.0
38.000690240 144.0
38.005614096 175.0
38.010537952 151.0
38.015461808 147.0
38.020385664 169.0
38.025309520 178.0
38.030233376 151.0
38.035157232 163.0
38.040081088 160.0
38.045004944 152.0
38.049928800 166.0
38.054852656 152.0
38.059776512 153.0
38.064700368 175.0
38.069624224 133.0
38.074548080 148.0
38.079471936 155.0
38.084395792 157.0
38.089319648 183.0
38.094243504 149.0
38.099167360 172.0
38.104091216 151.0
38.109015072 177.0
38.113938928 178.0
38.118862784 162.0
38.123786640 176.0
38.128710496 162.0
38.133634352 169.0
38.138558208 172.0
38.143482064 187.0
38.148405920 162.0
38.153329776 183.0
38.158253632 164.0
38.163177488 176.0
38.168101344 181.0
38.173025200 164.0
38.177949056 171.0
38.182872912 184.0
38.187796768 191.0
38.192720624 194.0
38.197644480 163.0
38.202568336 186.0
38.207492192 174.0
38.212416048 166.0
38.217339904 176.0
38.222263760 186.0
38.227187616 187.0
38.232111472 176.0
38.237035328 206.0
38.241959184 189.0
38.246883040 174.0
38.251806897 219.0
38.256730753 196.0
38.261654609 173.0
38.266578465 204.0
38.271502321 190.0
38.276426177 183.0
38.281350033 210.0
38.286273889 229.0
38.291197745 209.0
38.296121601 194.0
38.301045457 201.0
38.305969313 194.0
38.310893169 195.0
38.315817025 225.0
38.320740881 198.0
38.325664737 204.0
38.330588593 216.0
38.335512449 238.0
38.340436305 232.0
38.345360161 216.0
38.350284017 223.0
38.355207873 213.0
38.360131729 259.0
38.365055585 213.0
38.369979441 231.0
38.374903297 208.0
38.379827153 241.0
38.384751009 249.0
38.389674865 208.0
38.394598721 278.0
38.399522577 274.0
38.404446433 258.0
38.409370289 249.0
38.414294145 232.0
38.419218001 255.0
38.424141857 238.0
38.429065713 226.0
38.433989569 233.0
38.438913425 248.0
38.443837281 266.0
38.448761137 256.0
38.453684993 246.0
38.458608849 246.0
38.463532705 230.0
38.468456561 262.0
38.473380417 272.0
38.478304273 290.0
38.483228129 286.0
38.488151985 276.0
38.493075841 287.0
38.497999697 315.0
38.502923553 292.0
38.507847409 275.0
38.512771265 293.0
38.517695121 321.0
38.522618977 282.0
38.527542833 303.0
38.532466689 286.0
38.537390545 282.0
38.542314401 290.0
38.547238257 304.0
38.552162113 309.0
38.557085969 315.0
38.562009825 284.0
38.566933681 311.0
38.571857537 328.0
38.576781393 332.0
38.581705249 330.0
38.586629105 355.0
38.591552961 355.0
38.596476817 316.0
38.601400673 334.0
38.606324529 333.0
38.611248385 358.0
38.616172241 318.0
38.621096097 360.0
38.626019953 354.0
38.630943809 328.0
38.635867665 354.0
38.640791521 340.0
38.645715377 351.0
38.650639233 359.0
38.655563089 339.0
38.660486945 367.0
38.665410801 354.0
38.670334657 351.0
38.675258513 344.0
38.680182369 378.0
38.685106225 376.0
38.690030081 379.0
38.694953937 397.0
38.699877793 432.0
38.704801649 371.0
38.709725505 416.0
38.714649361 396.0
38.719573217 383.0
38.724497073 419.0
38.729420929 390.0
38.734344785 415.0
38.739268641 415.0
38.744192497 395.0
38.749116353 379.0
38.754040210 414.0
38.758964066 390.0
38.763887922 382.0
38.768811778 447.0
38.773735634 435.0
38.778659490 448.0
38.783583346 407.0
38.788507202 481.0
38.793431058 444.0
38.798354914 454.0
38.803278770 456.0
38.808202626 428.0
38.813126482 457.0
38.818050338 469.0
38.822974194 502.0
38.827898050 501.0
38.832821906 421.0
38.837745762 465.0
38.842669618 484.0
38.847593474 491.0
38.852517330 440.0
38.857441186 480.0
38.862365042 495.0
38.867288898 501.0
38.872212754 476.0
38.877136610 511.0
38.882060466 474.0
38.886984322 488.0
38.891908178 489.0
38.896832034 514.0
38.901755890 551.0
38.906679746 506.0
38.911603602 523.0
38.916527458 492.0
38.921451314 543.0
38.926375170 500.0
38.931299026 539.0
38.936222882 532.0
38.941146738 555.0
38.946070594 547.0
38.950994450 559.0
38.955918306 534.0
38.960842162 565.0
38.965766018 568.0
38.970689874 572.0
38.975613730 578.0
38.980537586 581.0
38.985461442 612.0
38.990385298 574.0
38.995309154 593.0
39.000233010 572.0
39.005156866 618.0
39.010080722 637.0
39.015004578 638.0
39.019928434 675.0
39.024852290 635.0
39.029776146 675.0
39.034700002 650.0
39.039623858 674.0
39.044547714 669.0
39.049471570 681.0
39.054395426 677.0
39.059319282 682.0
39.064243138 697.0
39.069166994 733.0
39.074090850 789.0
39.079014706 778.0
39.083938562 754.0
39.088862418 725.0
39.093786274 701.0
39.098710130 813.0
39.103633986 766.0
39.108557842 757.0
39.113481698 744.0
39.118405554 803.0
39.123329410 808.0
39.128253266 822.0
39.133177122 871.0
39.138100978 849.0
39.143024834 859.0
39.147948690 840.0
39.152872546 911.0
39.157796402 887.0
39.162720258 886.0
39.167644114 890.0
39.172567970 869.0
39.177491826 954.0
39.182415682 927.0
39.187339538 971.0
39.192263394 940.0
39.197187250 962.0
39.202111106 1065.0
39.207034962 980.0
39.211958818 1005.0
39.216882674 1017.0
39.221806530 1016.0
39.226730386 1081.0
39.231654242 994.0
39.236578098 1063.0
39.241501954 1142.0
39.246425810 1037.0
39.251349667 1133.0
39.256273523 1080.0
39.261197379 1105.0
39.266121235 1086.0
39.271045091 1148.0
39.275968947 1131.0
39.280892803 1096.0
39.285816659 1110.0
39.290740515 1165.0
39.295664371 1164.0
39.300588227 1121.0
39.305512083 1072.0
39.310435939 1084.0
39.315359795 1159.0
39.320283651 1147.0
39.325207507 1112.0
39.330131363 1161.0
39.335055219 1121.0
39.339979075 1160.0
39.344902931 1125.0
39.349826787 1168.0
39.354750643 1144.0
39.359674499 1147.0
39.364598355 1130.0
39.369522211 1169.0
39.374446067 1077.0
39.379369923 1107.0
39.384293779 1092.0
39.389217635 1115.0
39.394141491 1075.0
39.399065347 1105.0
39.403989203 1062.0
39.408913059 1057.0
39.413836915 1042.0
39.418760771 1103.0
39.423684627 1085.0
39.428608483 960.0
39.433532339 1044.0
39.438456195 970.0
39.443380051 1017.0
39.448303907 1012.0
39.453227763 973.0
39.458151619 987.0
39.463075475 906.0
39.467999331 888.0
39.472923187 832.0
39.477847043 923.0
39.482770899 907.0
39.487694755 913.0
39.492618611 867.0
39.497542467 835.0
39.502466323 781.0
39.507390179 767.0
39.512314035 824.0
39.517237891 760.0
39.522161747 790.0
39.527085603 779.0
39.532009459 739.0
39.536933315 727.0
39.541857171 713.0
39.546781027 691.0
39.551704883 676.0
39.556628739 640.0
39.561552595 586.0
39.566476451 610.0
39.571400307 602.0
39.576324163 589.0
39.581248019 641.0
39.586171875 589.0
39.591095731 573.0
39.596019587 532.0
39.600943443 510.0
39.605867299 569.0
39.610791155 519.0
39.615715011 502.0
39.620638867 502.0
39.625562723 501.0
39.630486579 489.0
39.635410435 454.0
39.640334291 476.0
39.645258147 470.0
39.650182003 411.0
39.655105859 387.0
39.660029715 420.0
39.664953571 412.0
39.669877427 428.0
39.674801283 422.0
39.679725139 426.0
39.684648995 387.0
39.689572851 353.0
39.694496707 356.0
39.699420563 318.0
39.704344419 357.0
39.709268275 379.0
39.714192131 341.0
39.719115987 361.0
39.724039843 317.0
39.728963699 300.0
39.733887555 318.0
39.738811411 332.0
39.743735267 298.0
39.748659123 303.0
39.753582980 322.0
39.758506836 286.0
39.763430692 309.0
39.768354548 276.0
39.773278404 327.0
39.778202260 268.0
39.783126116 314.0
39.788049972 305.0
39.792973828 270.0
39.797897684 276.0
39.802821540 263.0
39.807745396 276.0
39.812669252 258.0
39.817593108 243.0
39.822516964 240.0
39.827440820 238.0
39.832364676 274.0
39.837288532 243.0
39.842212388 248.0
39.847136244 271.0
39.852060100 230.0
39.856983956 246.0
39.861907812 236.0
39.866831668 234.0
39.871755524 224.0
39.876679380 187.0
39.881603236 230.0
39.886527092 194.0
39.891450948 227.0
39.896374804 237.0
39.901298660 220.0
39.906222516 197.0
39.911146372 168.0
39.916070228 170.0
39.920994084 196.0
39.925917940 203.0
39.930841796 222.0
39.935765652 200.0
39.940689508 222.0
39.945613364 199.0
39.950537220 213.0
39.955461076 187.0
39.960384932 198.0
39.965308788 174.0
39.970232644 181.0
39.975156500 204.0
39.980080356 206.0
39.985004212 188.0
39.989928068 197.0
39.994851924 175.0
39.999775780 179.0
40.004699636 200.0
40.009623492 203.0
40.014547348 178.0
40.019471204 186.0
40.024395060 194.0
40.029318916 159.0
40.034242772 160.0
40.039166628 192.0
40.044090484 176.0
40.049014340 171.0
40.053938196 186.0
40.058862052 179.0
40.063785908 174.0
40.068709764 162.0
40.073633620 158.0
40.078557476 178.0
40.083481332 188.0
40.088405188 197.0
40.093329044 182.0
40.098252900 166.0
40.103176756 174.0
40.108100612 175.0
40.113024468 149.0
40.117948324 165.0
40.122872180 175.0
40.127796036 178.0
40.132719892 153.0
40.137643748 162.0
40.142567604 182.0
40.147491460 173.0
40.152415316 176.0
40.157339172 163.0
40.162263028 160.0
40.167186884 188.0
40.172110740 160.0
40.177034596 172.0
40.181958452 151.0
40.186882308 160.0
40.191806164 163.0
40.196730020 141.0
40.201653876 174.0
40.206577732 160.0
40.211501588 156.0
40.216425444 167.0
40.221349300 160.0
40.226273156 173.0
40.231197012 153.0
40.236120868 171.0
40.241044724 153.0
40.245968580 136.0
40.250892437 140.0
40.255816293 157.0
40.260740149 163.0
40.265664005 156.0
40.270587861 173.0
40.275511717 152.0
40.280435573 160.0
40.285359429 178.0
40.290283285 160.0
40.295207141 164.0
40.300130997 152.0
40.305054853 166.0
40.309978709 164.0
40.314902565 152.0
40.319826421 161.0
40.324750277 186.0
40.329674133 168.0
40.334597989 151.0
40.339521845 169.0
40.344445701 146.0
40.349369557 171.0
40.354293413 163.0
40.359217269 137.0
40.364141125 156.0
40.369064981 167.0
40.373988837 147.0
40.378912693 159.0
40.383836549 167.0
40.388760405 161.0
40.393684261 161.0
40.398608117 154.0
40.403531973 162.0
40.408455829 155.0
40.413379685 167.0
40.418303541 146.0
40.423227397 155.0
40.428151253 158.0
40.433075109 154.0
40.437998965 177.0
40.442922821 167.0
40.447846677 147.0
40.452770533 136.0
40.457694389 170.0
40.462618245 178.0
40.467542101 153.0
40.472465957 152.0
40.477389813 160.0
40.482313669 157.0
40.487237525 148.0
40.492161381 142.0
40.497085237 172.0
40.502009093 166.0
40.506932949 140.0
40.511856805 155.0
40.516780661 139.0
40.521704517 144.0
40.526628373 161.0
40.531552229 160.0
40.536476085 135.0
40.541399941 172.0
40.546323797 149.0
40.551247653 152.0
40.556171509 151.0
40.561095365 173.0
40.566019221 178.0
40.570943077 161.0
40.575866933 170.0
40.580790789 173.0
40.585714645 162.0
40.590638501 152.0
40.595562357 153.0
40.600486213 159.0
40.605410069 168.0
40.610333925 152.0
40.615257781 181.0
40.620181637 171.0
40.625105493 173.0
40.630029349 184.0
40.634953205 175.0
40.639877061 138.0
40.644800917 160.0
40.649724773 170.0
40.654648629 153.0
40.659572485 182.0
40.664496341 185.0
40.669420197 177.0
40.674344053 161.0
40.679267909 149.0
40.684191765 159.0
40.689115621 188.0
40.694039477 147.0
40.698963333 174.0
40.703887189 186.0
40.708811045 170.0
40.713734901 185.0
40.718658757 155.0
40.723582613 179.0
40.728506469 163.0
40.733430325 181.0
40.738354181 181.0
40.743278037 179.0
40.748201893 173.0
40.753125750 189.0
40.758049606 175.0
40.762973462 187.0
40.767897318 200.0
40.772821174 163.0
40.777745030 208.0
40.782668886 169.0
40.787592742 175.0
40.792516598 177.0
40.797440454 179.0
40.802364310 172.0
40.807288166 184.0
40.812212022 151.0
40.817135878 201.0
40.822059734 183.0
40.826983590 177.0
40.831907446 185.0
40.836831302 183.0
40.841755158 198.0
40.846679014 190.0
40.851602870 177.0
40.856526726 171.0
40.861450582 173.0
40.866374438 190.0
40.871298294 170.0
40.876222150 161.0
40.881146006 209.0
40.886069862 185.0
40.890993718 187.0
40.895917574 184.0
40.900841430 203.0
40.905765286 189.0
40.910689142 178.0
40.915612998 192.0
40.920536854 193.0
40.925460710 219.0
40.930384566 211.0
40.935308422 174.0
40.940232278 172.0
40.945156134 212.0
40.950079990 177.0
40.955003846 165.0
40.959927702 195.0
40.964851558 204.0
40.969775414 195.0
40.974699270 216.0
40.979623126 189.0
40.984546982 208.0
40.989470838 178.0
40.994394694 195.0
40.999318550 172.0
41.004242406 222.0
41.009166262 185.0
41.014090118 232.0
41.019013974 186.0
41.023937830 161.0
41.028861686 172.0
41.033785542 179.0
41.038709398 223.0
41.043633254 196.0
41.048557110 227.0
41.053480966 213.0
41.058404822 203.0
41.063328678 199.0
41.068252534 197.0
41.073176390 209.0
41.078100246 186.0
41.083024102 199.0
41.087947958 217.0
41.092871814 201.0
41.097795670 225.0
41.102719526 215.0
41.107643382 189.0
41.112567238 234.0
41.117491094 200.0
41.122414950 213.0
41.127338806 211.0
41.132262662 216.0
41.137186518 215.0
41.142110374 257.0
41.147034230 216.0
41.151958086 220.0
41.156881942 202.0
41.161805798 224.0
41.166729654 189.0
41.171653510 212.0
41.176577366 230.0
41.181501222 228.0
41.186425078 261.0
41.191348934 256.0
41.196272790 260.0
41.201196646 230.0
41.206120502 209.0
41.211044358 230.0
41.215968214 270.0
41.220892070 263.0
41.225815926 266.0
41.230739782 293.0
41.235663638 288.0
41.240587494 281.0
41.245511350 311.0
41.250435207 296.0
41.255359063 311.0
41.260282919 289.0
41.265206775 305.0
41.270130631 294.0
41.275054487 310.0
41.279978343 284.0
41.284902199 313.0
41.289826055 307.0
41.294749911 275.0
41.299673767 310.0
41.304597623 321.0
41.309521479 303.0
41.314445335 293.0
41.319369191 342.0
41.324293047 312.0
41.329216903 352.0
41.334140759 344.0
41.339064615 338.0
41.343988471 362.0
41.348912327 355.0
41.353836183 342.0
41.358760039 383.0
41.363683895 393.0
41.368607751 395.0
41.373531607 400.0
41.378455463 439.0
41.383379319 457.0
41.388303175 529.0
41.393227031 554.0
41.398150887 551.0
41.403074743 595.0
41.407998599 632.0
41.412922455 693.0
41.417846311 701.0
41.422770167 768.0
41.427694023 813.0
41.432617879 819.0
41.437541735 870.0
41.442465591 863.0
41.447389447 881.0
41.452313303 904.0
41.457237159 855.0
41.462161015 872.0
41.467084871 925.0
41.472008727 909.0
41.476932583 884.0
41.481856439 940.0
41.486780295 903.0
41.491704151 913.0
41.496628007 895.0
41.501551863 968.0
41.506475719 951.0
41.511399575 1002.0
41.516323431 1136.0
41.521247287 1116.0
41.526171143 1271.0
41.531094999 1347.0
41.536018855 1481.0
41.540942711 1694.0
41.545866567 1887.0
41.550790423 2187.0
41.555714279 2528.0
41.560638135 2961.0
41.565561991 3653.0
41.570485847 4429.0
41.575409703 5987.0
41.580333559 8172.0
41.585257415 12230.0
41.590181271 19156.0
41.595105127 29412.0
41.600028983 39811.0
41.604952839 47629.0
41.609876695 52043.0
41.614800551 54939.0
41.619724407 57319.0
41.624648263 57640.0
41.629572119 57811.0
41.634495975 57188.0
41.639419831 54722.0
41.644343687 49660.0
41.649267543 41782.0
41.654191399 30483.0
41.659115255 20596.0
41.664039111 14097.0
41.668962967 9914.0
41.673886823 7817.0
41.678810679 6680.0
41.683734535 6505.0
41.688658391 6754.0
41.693582247 8579.0
41.698506103 11581.0
41.703429959 15960.0
41.708353815 20787.0
41.713277671 24516.0
41.718201527 26516.0
41.723125383 28426.0
41.728049239 28978.0
41.732973095 29363.0
41.737896951 29224.0
41.742820807 28438.0
41.747744663 26933.0
41.752668520 24546.0
41.757592376 20529.0
41.762516232 15465.0
41.767440088 10852.0
41.772363944 7526.0
41.777287800 5273.0
41.782211656 3858.0
41.787135512 2936.0
41.792059368 2356.0
41.796983224 1990.0
41.801907080 1627.0
41.806830936 1530.0
41.811754792 1382.0
41.816678648 1289.0
41.821602504 1134.0
41.826526360 1122.0
41.831450216 981.0
41.836374072 867.0
41.841297928 871.0
41.846221784 798.0
41.851145640 870.0
41.856069496 721.0
41.860993352 637.0
41.865917208 623.0
41.870841064 660.0
41.875764920 625.0
41.880688776 650.0
41.885612632 609.0
41.890536488 526.0
41.895460344 543.0
41.900384200 520.0
41.905308056 507.0
41.910231912 438.0
41.915155768 473.0
41.920079624 470.0
41.925003480 489.0
41.929927336 466.0
41.934851192 440.0
41.939775048 433.0
41.944698904 403.0
41.949622760 415.0
41.954546616 463.0
41.959470472 374.0
41.964394328 352.0
41.969318184 390.0
41.974242040 358.0
41.979165896 352.0
41.984089752 354.0
41.989013608 335.0
41.993937464 362.0
41.998861320 341.0
42.003785176 314.0
42.008709032 338.0
42.013632888 348.0
42.018556744 300.0
42.023480600 328.0
42.028404456 279.0
42.033328312 307.0
42.038252168 335.0
42.043176024 302.0
42.048099880 293.0
42.053023736 281.0
42.057947592 284.0
42.062871448 306.0
42.067795304 267.0
42.072719160 256.0
42.077643016 277.0
42.082566872 276.0
42.087490728 270.0
42.092414584 299.0
42.097338440 260.0
42.102262296 256.0
42.107186152 228.0
42.112110008 260.0
42.117033864 268.0
42.121957720 233.0
42.126881576 271.0
42.131805432 222.0
42.136729288 227.0
42.141653144 264.0
42.146577000 226.0
42.151500856 204.0
42.156424712 205.0
42.161348568 223.0
42.166272424 184.0
42.171196280 216.0
42.176120136 209.0
42.181043992 207.0
42.185967848 200.0
42.190891704 215.0
42.195815560 197.0
42.200739416 196.0
42.205663272 195.0
42.210587128 203.0
42.215510984 210.0
42.220434840 189.0
42.225358696 193.0
42.230282552 202.0
42.235206408 193.0
42.240130264 196.0
42.245054120 218.0
42.249977977 184.0
42.254901833 193.0
42.259825689 190.0
42.264749545 194.0
42.269673401 189.0
42.274597257 181.0
42.279521113 168.0
42.284444969 188.0
42.289368825 198.0
42.294292681 202.0
42.299216537 173.0
42.304140393 172.0
42.309064249 177.0
42.313988105 173.0
42.318911961 188.0
42.323835817 172.0
42.328759673 167.0
42.333683529 176.0
42.338607385 175.0
42.343531241 171.0
42.348455097 168.0
42.353378953 177.0
42.358302809 168.0
42.363226665 160.0
42.368150521 183.0
42.373074377 174.0
42.377998233 189.0
42.382922089 129.0
42.387845945 161.0
42.392769801 145.0
42.397693657 160.0
42.402617513 156.0
42.407541369 167.0
42.412465225 158.0
42.417389081 188.0
42.422312937 179.0
42.427236793 155.0
42.432160649 157.0
42.437084505 170.0
42.442008361 153.0
42.446932217 158.0
42.451856073 174.0
42.456779929 150.0
42.461703785 161.0
42.466627641 186.0
42.471551497 179.0
42.476475353 156.0
42.481399209 167.0
42.486323065 157.0
42.491246921 148.0
42.496170777 142.0
42.501094633 158.0
42.506018489 149.0
42.510942345 172.0
42.515866201 161.0
42.520790057 155.0
42.525713913 167.0
42.530637769 160.0
42.535561625 146.0
42.540485481 154.0
42.545409337 178.0
42.550333193 165.0
42.555257049 129.0
42.560180905 150.0
42.565104761 164.0
42.570028617 151.0
42.574952473 147.0
42.579876329 155.0
42.584800185 157.0
42.589724041 174.0
42.594647897 166.0
42.599571753 131.0
42.604495609 150.0
42.609419465 127.0
42.614343321 139.0
42.619267177 141.0
42.624191033 164.0
42.629114889 137.0
42.634038745 167.0
42.638962601 146.0
42.643886457 153.0
42.648810313 157.0
42.653734169 162.0
42.658658025 162.0
42.663581881 164.0
42.668505737 139.0
42.673429593 149.0
42.678353449 154.0
42.683277305 153.0
42.688201161 147.0
42.693125017 144.0
42.698048873 146.0
42.702972729 154.0
42.707896585 142.0
42.712820441 157.0
42.717744297 134.0
42.722668153 136.0
42.727592009 167.0
42.732515865 154.0
42.737439721 148.0
42.742363577 162.0
42.747287433 129.0
42.752211290 151.0
42.757135146 150.0
42.762059002 134.0
42.766982858 148.0
42.771906714 152.0
42.776830570 147.0
42.781754426 139.0
42.786678282 131.0
42.791602138 153.0
42.796525994 144.0
42.801449850 145.0
42.806373706 150.0
42.811297562 146.0
42.816221418 138.0
42.821145274 142.0
42.826069130 159.0
42.830992986 141.0
42.835916842 151.0
42.840840698 154.0
42.845764554 131.0
42.850688410 143.0
42.855612266 151.0
42.860536122 141.0
42.865459978 141.0
42.870383834 149.0
42.875307690 131.0
42.880231546 159.0
42.885155402 142.0
42.890079258 140.0
42.895003114 148.0
42.899926970 146.0
42.904850826 150.0
42.909774682 167.0
42.914698538 145.0
42.919622394 146.0
42.924546250 139.0
42.929470106 148.0
42.934393962 159.0
42.939317818 152.0
42.944241674 149.0
42.949165530 140.0
42.954089386 151.0
42.959013242 156.0
42.963937098 163.0
42.968860954 131.0
42.973784810 143.0
42.978708666 133.0
42.983632522 135.0
42.988556378 132.0
42.993480234 130.0
42.998404090 138.0
43.003327946 144.0
43.008251802 125.0
43.013175658 140.0
43.018099514 146.0
43.023023370 154.0
43.027947226 136.0
43.032871082 163.0
43.037794938 141.0
43.042718794 145.0
43.047642650 130.0
43.052566506 124.0
43.057490362 133.0
43.062414218 139.0
43.067338074 143.0
43.072261930 138.0
43.077185786 133.0
43.082109642 148.0
43.087033498 136.0
43.091957354 152.0
43.096881210 141.0
43.101805066 140.0
43.106728922 125.0
43.111652778 132.0
43.116576634 131.0
43.121500490 140.0
43.126424346 135.0
43.131348202 159.0
43.136272058 135.0
43.141195914 141.0
43.146119770 135.0
43.151043626 139.0
43.155967482 134.0
43.160891338 131.0
43.165815194 167.0
43.170739050 138.0
43.175662906 142.0
43.180586762 143.0
43.185510618 137.0
43.190434474 137.0
43.195358330 134.0
43.200282186 151.0
43.205206042 148.0
43.210129898 144.0
43.215053754 143.0
43.219977610 125.0
43.224901466 135.0
43.229825322 133.0
43.234749178 125.0
43.239673034 131.0
43.244596890 121.0
43.249520747 142.0
43.254444603 147.0
43.259368459 152.0
43.264292315 113.0
43.269216171 155.0
43.274140027 148.0
43.279063883 162.0
43.283987739 143.0
43.288911595 124.0
43.293835451 140.0
43.298759307 142.0
43.303683163 141.0
43.308607019 135.0
43.313530875 143.0
43.318454731 156.0
43.323378587 149.0
43.328302443 145.0
43.333226299 149.0
43.338150155 135.0
43.343074011 147.0
43.347997867 137.0
43.352921723 127.0
43.357845579 133.0
43.362769435 148.0
43.367693291 143.0
43.372617147 134.0
43.377541003 141.0
43.382464859 155.0
43.387388715 133.0
43.392312571 156.0
43.397236427 120.0
43.402160283 128.0
43.407084139 149.0
43.412007995 155.0
43.416931851 145.0
43.421855707 153.0
43.426779563 157.0
43.431703419 133.0
43.436627275 137.0
43.441551131 144.0
43.446474987 134.0
43.451398843 137.0
43.456322699 149.0
43.461246555 152.0
43.466170411 155.0
43.471094267 152.0
43.476018123 136.0
43.480941979 157.0
43.485865835 140.0
43.490789691 135.0
43.495713547 145.0
43.500637403 141.0
43.505561259 135.0
43.510485115 155.0
43.515408971 135.0
43.520332827 139.0
43.525256683 151.0
43.530180539 143.0
43.535104395 143.0
43.540028251 146.0
43.544952107 147.0
43.549875963 127.0
43.554799819 129.0
43.559723675 127.0
43.564647531 127.0
43.569571387 147.0
43.574495243 135.0
43.579419099 128.0
43.584342955 143.0
43.589266811 154.0
43.594190667 145.0
43.599114523 139.0
43.604038379 154.0
43.608962235 152.0
43.613886091 141.0
43.618809947 156.0
43.623733803 153.0
43.628657659 148.0
43.633581515 128.0
43.638505371 134.0
43.643429227 135.0
43.648353083 123.0
43.653276939 144.0
43.658200795 128.0
43.663124651 146.0
43.668048507 144.0
43.672972363 152.0
43.677896219 143.0
43.682820075 138.0
43.687743931 146.0
43.692667787 155.0
43.697591643 166.0
43.702515499 139.0
43.707439355 155.0
43.712363211 152.0
43.717287067 151.0
43.722210923 137.0
43.727134779 149.0
43.732058635 159.0
43.736982491 130.0
43.741906347 147.0
43.746830203 128.0
43.751754060 149.0
43.756677916 149.0
43.761601772 124.0
43.766525628 151.0
43.771449484 170.0
43.776373340 151.0
43.781297196 139.0
43.786221052 147.0
43.791144908 162.0
43.796068764 138.0
43.800992620 163.0
43.805916476 170.0
43.810840332 134.0
43.815764188 150.0
43.820688044 172.0
43.825611900 170.0
43.830535756 126.0
43.835459612 132.0
43.840383468 146.0
43.845307324 170.0
43.850231180 155.0
43.855155036 144.0
43.860078892 152.0
43.865002748 148.0
43.869926604 141.0
43.874850460 153.0
43.879774316 170.0
43.884698172 157.0
43.889622028 177.0
43.894545884 165.0
43.899469740 158.0
43.904393596 147.0
43.909317452 170.0
43.914241308 150.0
43.919165164 190.0
43.924089020 185.0
43.929012876 172.0
43.933936732 175.0
43.938860588 155.0
43.943784444 157.0
43.948708300 159.0
43.953632156 173.0
43.958556012 164.0
43.963479868 160.0
43.968403724 161.0
43.973327580 161.0
43.978251436 175.0
43.983175292 173.0
43.988099148 149.0
43.993023004 161.0
43.997946860 145.0
44.002870716 162.0
44.007794572 148.0
44.012718428 172.0
44.017642284 154.0
44.022566140 181.0
44.027489996 158.0
44.032413852 152.0
44.037337708 178.0
44.042261564 153.0
44.047185420 152.0
44.052109276 167.0
44.057033132 170.0
44.061956988 189.0
44.066880844 179.0
44.071804700 166.0
44.076728556 158.0
44.081652412 174.0
44.086576268 194.0
44.091500124 160.0
44.096423980 172.0
44.101347836 166.0
44.106271692 183.0
44.111195548 166.0
44.116119404 190.0
44.121043260 187.0
44.125967116 158.0
44.130890972 154.0
44.135814828 158.0
44.140738684 203.0
44.145662540 196.0
44.150586396 159.0
44.155510252 210.0
44.160434108 166.0
44.165357964 176.0
44.170281820 177.0
44.175205676 207.0
44.180129532 190.0
44.185053388 192.0
44.189977244 199.0
44.194901100 184.0
44.199824956 186.0
44.204748812 183.0
44.209672668 188.0
44.214596524 218.0
44.219520380 189.0
44.224444236 217.0
44.229368092 222.0
44.234291948 215.0
44.239215804 194.0
44.244139660 220.0
44.249063517 215.0
44.253987373 210.0
44.258911229 217.0
44.263835085 212.0
44.268758941 234.0
44.273682797 257.0
44.278606653 223.0
44.283530509 217.0
44.288454365 242.0
44.293378221 239.0
44.298302077 248.0
44.303225933 258.0
44.308149789 243.0
44.313073645 269.0
44.317997501 267.0
44.322921357 275.0
44.327845213 261.0
44.332769069 289.0
44.337692925 285.0
44.342616781 280.0
44.347540637 297.0
44.352464493 263.0
44.357388349 270.0
44.362312205 292.0
44.367236061 274.0
44.372159917 322.0
44.377083773 285.0
44.382007629 267.0
44.386931485 300.0
44.391855341 307.0
44.396779197 320.0
44.401703053 318.0
44.406626909 319.0
44.411550765 343.0
44.416474621 314.0
44.421398477 304.0
44.426322333 303.0
44.431246189 315.0
44.436170045 305.0
44.441093901 307.0
44.446017757 318.0
44.450941613 326.0
44.455865469 330.0
44.460789325 273.0
44.465713181 286.0
44.470637037 281.0
44.475560893 328.0
44.480484749 287.0
44.485408605 278.0
44.490332461 279.0
44.495256317 296.0
44.500180173 275.0
44.505104029 318.0
44.510027885 300.0
44.514951741 260.0
44.519875597 273.0
44.524799453 256.0
44.529723309 259.0
44.534647165 277.0
44.539571021 245.0
44.544494877 273.0
44.549418733 268.0
44.554342589 244.0
44.559266445 259.0
44.564190301 264.0
44.569114157 245.0
44.574038013 242.0
44.578961869 226.0
44.583885725 228.0
44.588809581 238.0
44.593733437 220.0
44.598657293 211.0
44.603581149 216.0
44.608505005 197.0
44.613428861 204.0
44.618352717 207.0
44.623276573 202.0
44.628200429 181.0
44.633124285 206.0
44.638048141 197.0
44.642971997 225.0
44.647895853 220.0
44.652819709 176.0
44.657743565 199.0
44.662667421 179.0
44.667591277 188.0
44.672515133 165.0
44.677438989 145.0
44.682362845 183.0
44.687286701 162.0
44.692210557 182.0
44.697134413 167.0
44.702058269 167.0
44.706982125 186.0
44.711905981 193.0
44.716829837 195.0
44.721753693 168.0
44.726677549 168.0
44.731601405 168.0
44.736525261 170.0
44.741449117 162.0
44.746372973 186.0
44.751296830 159.0
44.756220686 158.0
44.761144542 161.0
44.766068398 149.0
44.770992254 151.0
44.775916110 159.0
44.780839966 188.0
44.785763822 162.0
44.790687678 164.0
44.795611534 168.0
44.800535390 147.0
44.805459246 151.0
44.810383102 146.0
44.815306958 146.0
44.820230814 124.0
44.825154670 148.0
44.830078526 162.0
44.835002382 152.0
44.839926238 122.0
44.844850094 144.0
44.849773950 142.0
44.854697806 158.0
44.859621662 153.0
44.864545518 153.0
44.869469374 156.0
44.874393230 134.0
44.879317086 147.0
44.884240942 132.0
44.889164798 145.0
44.894088654 154.0
44.899012510 155.0
44.903936366 144.0
44.908860222 163.0
44.913784078 137.0
44.918707934 133.0
44.923631790 142.0
44.928555646 143.0
44.933479502 148.0
44.938403358 142.0
44.943327214 136.0
44.948251070 136.0
44.953174926 149.0
44.958098782 147.0
44.963022638 125.0
44.967946494 137.0
44.972870350 153.0
44.977794206 160.0
44.982718062 129.0
44.987641918 145.0
44.992565774 151.0
44.997489630 128.0
