55.001861930 53.0
55.006785786 61.0
55.011709642 65.0
55.016633498 63.0
55.021557354 51.0
55.026481210 51.0
55.031405066 59.0
55.036328922 63.0
55.041252778 49.0
55.046176634 46.0
55.051100490 52.0
55.056024346 52.0
55.060948202 59.0
55.065872058 51.0
55.070795914 41.0
55.075719770 42.0
55.080643626 60.0
55.085567482 60.0
55.090491338 49.0
55.095415194 49.0
55.100339050 45.0
55.105262906 69.0
55.110186762 49.0
55.115110618 56.0
55.120034474 63.0
55.124958330 53.0
55.129882186 51.0
55.134806042 55.0
55.139729898 51.0
55.144653754 58.0
55.149577610 53.0
55.154501466 54.0
55.159425322 64.0
55.164349178 51.0
55.169273034 56.0
55.174196890 56.0
55.179120746 52.0
55.184044602 42.0
55.188968459 59.0
55.193892315 54.0
55.198816171 61.0
55.203740027 61.0
55.208663883 63.0
55.213587739 67.0
55.218511595 61.0
55.223435451 39.0
55.228359307 68.0
55.233283163 52.0
55.238207019 54.0
55.243130875 54.0
55.248054731 53.0
55.252978587 58.0
55.257902443 59.0
55.262826299 61.0
55.267750155 61.0
55.272674011 55.0
55.277597867 60.0
55.282521723 62.0
55.287445579 65.0
55.292369435 50.0
55.297293291 48.0
55.302217147 65.0
55.307141003 51.0
55.312064859 58.0
55.316988715 60.0
55.321912571 55.0
55.326836427 61.0
55.331760283 48.0
55.336684139 62.0
55.341607995 73.0
55.346531851 63.0
55.351455707 46.0
55.356379563 60.0
55.361303419 51.0
55.366227275 61.0
55.371151131 65.0
55.376074987 66.0
55.380998843 55.0
55.385922699 37.0
55.390846555 58.0
55.395770411 49.0
55.400694267 52.0
55.405618123 45.0
55.410541979 38.0
55.415465835 63.0
55.420389691 49.0
55.425313547 70.0
55.430237403 41.0
55.435161259 39.0
55.440085115 52.0
55.445008971 58.0
55.449932827 51.0
55.454856683 45.0
55.459780539 66.0
55.464704395 44.0
55.469628251 46.0
55.474552107 49.0
55.479475963 50.0
55.484399819 57.0
55.489323675 48.0
55.494247531 53.0
55.499171387 56.0
55.504095243 59.0
55.509019099 54.0
55.513942955 55.0
55.518866811 46.0
55.523790667 45.0
55.528714523 57.0
55.533638379 51.0
55.538562235 45.0
55.543486091 58.0
55.548409947 52.0
55.553333803 64.0
55.558257660 77.0
55.563181516 70.0
55.568105372 57.0
55.573029228 60.0
55.577953084 56.0
55.582876940 68.0
55.587800796 68.0
55.592724652 62.0
55.597648508 59.0
55.602572364 53.0
55.607496220 61.0
55.612420076 52.0
55.617343932 64.0
55.622267788 64.0
55.627191644 59.0
55.632115500 66.0
55.637039356 58.0
55.641963212 58.0
55.646887068 65.0
55.651810924 56.0
55.656734780 51.0
55.661658636 62.0
55.666582492 60.0
55.671506348 61.0
55.676430204 62.0
55.681354060 51.0
55.686277916 48.0
55.691201772 61.0
55.696125628 55.0
55.701049484 63.0
55.705973340 69.0
55.710897196 62.0
55.715821052 65.0
55.720744908 53.0
55.725668764 64.0
55.730592620 61.0
55.735516476 51.0
55.740440332 40.0
55.745364188 57.0
55.750288044 55.0
55.755211900 53.0
55.760135756 57.0
55.765059612 58.0
55.769983468 61.0
55.774907324 68.0
55.779831180 62.0
55.784755036 58.0
55.789678892 67.0
55.794602748 46.0
55.799526604 59.0
55.804450460 59.0
55.809374316 77.0
55.814298172 61.0
55.819222028 50.0
55.824145884 61.0
55.829069740 53.0
55.833993596 58.0
55.838917452 64.0
55.843841308 65.0
55.848765164 62.0
55.853689020 64.0
55.858612876 68.0
55.863536732 61.0
55.868460588 45.0
55.873384444 61.0
55.878308300 54.0
55.883232156 53.0
55.888156012 44.0
55.893079868 57.0
55.898003724 52.0
55.902927580 56.0
55.907851436 48.0
55.912775292 52.0
55.917699148 54.0
55.922623004 62.0
55.927546860 56.0
55.932470717 63.0
55.937394573 59.0
55.942318429 45.0
55.947242285 45.0
55.952166141 60.0
55.957089997 77.0
55.962013853 56.0
55.966937709 58.0
55.971861565 55.0
55.976785421 59.0
55.981709277 54.0
55.986633133 41.0
55.991556989 49.0
55.996480845 57.0
56.001404701 47.0
56.006328557 55.0
56.011252413 63.0
56.016176269 60.0
56.021100125 54.0
56.026023981 53.0
56.030947837 67.0
56.035871693 79.0
56.040795549 56.0
56.045719405 51.0
56.050643261 57.0
56.055567117 59.0
56.060490973 53.0
56.065414829 63.0
56.070338685 63.0
56.075262541 57.0
56.080186397 59.0
56.085110253 59.0
56.090034109 72.0
56.094957965 55.0
56.099881821 52.0
56.104805677 62.0
56.109729533 58.0
56.114653389 49.0
56.119577245 62.0
56.124501101 48.0
56.129424957 61.0
56.134348813 60.0
56.139272669 47.0
56.144196525 57.0
56.149120381 53.0
56.154044237 63.0
56.158968093 72.0
56.163891949 53.0
56.168815805 53.0
56.173739661 66.0
56.178663517 47.0
56.183587373 40.0
56.188511229 52.0
56.193435085 58.0
56.198358941 67.0
56.203282797 65.0
56.208206653 48.0
56.213130509 44.0
56.218054365 57.0
56.222978221 50.0
56.227902077 58.0
56.232825933 58.0
56.237749789 62.0
56.242673645 58.0
56.247597501 68.0
56.252521357 61.0
56.257445213 65.0
56.262369069 71.0
56.267292925 55.0
56.272216781 52.0
56.277140637 51.0
56.282064493 76.0
56.286988349 54.0
56.291912205 61.0
56.296836061 49.0
56.301759918 51.0
56.306683774 53.0
56.311607630 53.0
56.316531486 69.0
56.321455342 57.0
56.326379198 64.0
56.331303054 62.0
56.336226910 53.0
56.341150766 60.0
56.346074622 58.0
56.350998478 60.0
56.355922334 57.0
56.360846190 51.0
56.365770046 57.0
56.370693902 54.0
56.375617758 61.0
56.380541614 68.0
56.385465470 50.0
56.390389326 64.0
56.395313182 53.0
56.400237038 61.0
56.405160894 75.0
56.410084750 55.0
56.415008606 51.0
56.419932462 64.0
56.424856318 58.0
56.429780174 52.0
56.434704030 46.0
56.439627886 58.0
56.444551742 59.0
56.449475598 74.0
56.454399454 56.0
56.459323310 54.0
56.464247166 46.0
56.469171022 37.0
56.474094878 54.0
56.479018734 54.0
56.483942590 57.0
56.488866446 61.0
56.493790302 73.0
56.498714158 55.0
56.503638014 42.0
56.508561870 55.0
56.513485726 46.0
56.518409582 47.0
56.523333438 50.0
56.528257294 52.0
56.533181150 45.0
56.538105006 64.0
56.543028862 52.0
56.547952718 44.0
56.552876574 56.0
56.557800430 48.0
56.562724286 68.0
56.567648142 63.0
56.572571998 62.0
56.577495854 42.0
56.582419710 45.0
56.587343566 46.0
56.592267422 58.0
56.597191278 71.0
56.602115134 61.0
56.607038990 61.0
56.611962846 44.0
56.616886702 50.0
56.621810558 59.0
56.626734414 73.0
56.631658270 60.0
56.636582126 54.0
56.641505982 66.0
56.646429838 50.0
56.651353694 55.0
56.656277550 60.0
56.661201406 56.0
56.666125262 51.0
56.671049119 57.0
56.675972975 49.0
56.680896831 48.0
56.685820687 65.0
56.690744543 64.0
56.695668399 54.0
56.700592255 72.0
56.705516111 46.0
56.710439967 52.0
56.715363823 51.0
56.720287679 58.0
56.725211535 46.0
56.730135391 65.0
56.735059247 58.0
56.739983103 54.0
56.744906959 50.0
56.749830815 49.0
56.754754671 53.0
56.759678527 46.0
56.764602383 49.0
56.769526239 66.0
56.774450095 67.0
56.779373951 62.0
56.784297807 46.0
56.789221663 55.0
56.794145519 52.0
56.799069375 45.0
56.803993231 45.0
56.808917087 44.0
56.813840943 66.0
56.818764799 56.0
56.823688655 55.0
56.828612511 51.0
56.833536367 51.0
56.838460223 51.0
56.843384079 39.0
56.848307935 71.0
56.853231791 68.0
56.858155647 53.0
56.863079503 46.0
56.868003359 53.0
56.872927215 59.0
56.877851071 47.0
56.882774927 52.0
56.887698783 62.0
56.892622639 65.0
56.897546495 61.0
56.902470351 72.0
56.907394207 58.0
56.912318063 53.0
56.917241919 50.0
56.922165775 62.0
56.927089631 49.0
56.932013487 62.0
56.936937343 55.0
56.941861199 57.0
56.946785055 46.0
56.951708911 45.0
56.956632767 59.0
56.961556623 56.0
56.966480479 62.0
56.971404335 51.0
56.976328191 67.0
56.981252047 61.0
56.986175903 62.0
56.991099759 55.0
56.996023615 51.0
57.000947471 65.0
57.005871327 52.0
57.010795183 72.0
57.015719039 58.0
57.020642895 44.0
57.025566751 41.0
57.030490607 49.0
57.035414463 59.0
57.040338320 46.0
57.045262176 44.0
57.050186032 63.0
57.055109888 48.0
57.060033744 50.0
57.064957600 61.0
57.069881456 51.0
57.074805312 62.0
57.079729168 67.0
57.084653024 58.0
57.089576880 56.0
57.094500736 54.0
57.099424592 56.0
57.104348448 66.0
57.109272304 61.0
57.114196160 48.0
57.119120016 63.0
57.124043872 72.0
57.128967728 52.0
57.133891584 55.0
57.138815440 57.0
57.143739296 53.0
57.148663152 54.0
57.153587008 59.0
57.158510864 56.0
57.163434720 54.0
57.168358576 57.0
57.173282432 60.0
57.178206288 48.0
57.183130144 50.0
57.188054000 62.0
57.192977856 61.0
57.197901712 53.0
57.202825568 54.0
57.207749424 58.0
57.212673280 60.0
57.217597136 60.0
57.222520992 79.0
57.227444848 57.0
57.232368704 41.0
57.237292560 56.0
57.242216416 48.0
57.247140272 41.0
57.252064128 55.0
57.256987984 51.0
57.261911840 65.0
57.266835696 62.0
57.271759552 52.0
57.276683408 70.0
57.281607264 48.0
57.286531120 57.0
57.291454976 61.0
57.296378832 49.0
57.301302688 46.0
57.306226544 58.0
57.311150400 46.0
57.316074256 65.0
57.320998112 54.0
57.325921968 46.0
57.330845824 53.0
57.335769680 53.0
57.340693536 45.0
57.345617392 58.0
57.350541248 47.0
57.355465104 55.0
57.360388960 51.0
57.365312816 44.0
57.370236672 62.0
57.375160528 54.0
57.380084384 46.0
57.385008240 60.0
57.389932096 44.0
57.394855952 66.0
57.399779808 35.0
57.404703664 54.0
57.409627521 62.0
57.414551377 60.0
57.419475233 71.0
57.424399089 60.0
57.429322945 75.0
57.434246801 64.0
57.439170657 60.0
57.444094513 59.0
57.449018369 52.0
57.453942225 53.0
57.458866081 50.0
57.463789937 54.0
57.468713793 62.0
57.473637649 66.0
57.478561505 54.0
57.483485361 65.0
57.488409217 56.0
57.493333073 44.0
57.498256929 72.0
57.503180785 52.0
57.508104641 47.0
57.513028497 67.0
57.517952353 62.0
57.522876209 55.0
57.527800065 58.0
57.532723921 66.0
57.537647777 63.0
57.542571633 68.0
57.547495489 54.0
57.552419345 56.0
57.557343201 48.0
57.562267057 61.0
57.567190913 51.0
57.572114769 53.0
57.577038625 55.0
57.581962481 56.0
57.586886337 47.0
57.591810193 58.0
57.596734049 63.0
57.601657905 69.0
57.606581761 65.0
57.611505617 50.0
57.616429473 61.0
57.621353329 53.0
57.626277185 61.0
57.631201041 61.0
57.636124897 60.0
57.641048753 59.0
57.645972609 65.0
57.650896465 59.0
57.655820321 70.0
57.660744177 59.0
57.665668033 47.0
57.670591889 57.0
57.675515745 61.0
57.680439601 53.0
57.685363457 53.0
57.690287313 49.0
57.695211169 55.0
57.700135025 54.0
57.705058881 46.0
57.709982737 74.0
57.714906593 56.0
57.719830449 49.0
57.724754305 67.0
57.729678161 63.0
57.734602017 65.0
57.739525873 60.0
57.744449729 47.0
57.749373585 48.0
57.754297441 55.0
57.759221297 65.0
57.764145153 63.0
57.769069009 60.0
57.773992865 70.0
57.778916721 61.0
57.783840578 65.0
57.788764434 81.0
57.793688290 55.0
57.798612146 45.0
57.803536002 76.0
57.808459858 59.0
57.813383714 67.0
57.818307570 58.0
57.823231426 56.0
57.828155282 67.0
57.833079138 69.0
57.838002994 62.0
57.842926850 70.0
57.847850706 46.0
57.852774562 75.0
57.857698418 69.0
57.862622274 57.0
57.867546130 58.0
57.872469986 71.0
57.877393842 73.0
57.882317698 57.0
57.887241554 63.0
57.892165410 67.0
57.897089266 69.0
57.902013122 68.0
57.906936978 75.0
57.911860834 48.0
57.916784690 62.0
57.921708546 53.0
57.926632402 68.0
57.931556258 60.0
57.936480114 72.0
57.941403970 80.0
57.946327826 73.0
57.951251682 51.0
57.956175538 58.0
57.961099394 60.0
57.966023250 50.0
57.970947106 65.0
57.975870962 76.0
57.980794818 54.0
57.985718674 69.0
57.990642530 66.0
57.995566386 77.0
58.000490242 79.0
58.005414098 83.0
58.010337954 62.0
58.015261810 61.0
58.020185666 53.0
58.025109522 67.0
58.030033378 67.0
58.034957234 55.0
58.039881090 68.0
58.044804946 77.0
58.049728802 57.0
58.054652658 72.0
58.059576514 69.0
58.064500370 54.0
58.069424226 55.0
58.074348082 69.0
58.079271938 77.0
58.084195794 75.0
58.089119650 66.0
58.094043506 55.0
58.098967362 67.0
58.103891218 68.0
58.108815074 64.0
58.113738930 63.0
58.118662786 72.0
58.123586642 64.0
58.128510498 61.0
58.133434354 59.0
58.138358210 77.0
58.143282066 67.0
58.148205922 68.0
58.153129779 49.0
58.158053635 77.0
58.162977491 52.0
58.167901347 67.0
58.172825203 66.0
58.177749059 67.0
58.182672915 52.0
58.187596771 49.0
58.192520627 62.0
58.197444483 60.0
58.202368339 62.0
58.207292195 58.0
58.212216051 49.0
58.217139907 72.0
58.222063763 55.0
58.226987619 58.0
58.231911475 66.0
58.236835331 51.0
58.241759187 60.0
58.246683043 66.0
58.251606899 59.0
58.256530755 58.0
58.261454611 61.0
58.266378467 61.0
58.271302323 64.0
58.276226179 55.0
58.281150035 51.0
58.286073891 58.0
58.290997747 40.0
58.295921603 56.0
58.300845459 44.0
58.305769315 61.0
58.310693171 52.0
58.315617027 66.0
58.320540883 64.0
58.325464739 64.0
58.330388595 52.0
58.335312451 62.0
58.340236307 60.0
58.345160163 59.0
58.350084019 52.0
58.355007875 57.0
58.359931731 61.0
58.364855587 57.0
58.369779443 50.0
58.374703299 59.0
58.379627155 53.0
58.384551011 51.0
58.389474867 61.0
58.394398723 63.0
58.399322579 53.0
58.404246435 59.0
58.409170291 65.0
58.414094147 50.0
58.419018003 49.0
58.423941859 45.0
58.428865715 53.0
58.433789571 60.0
58.438713427 54.0
58.443637283 52.0
58.448561139 59.0
58.453484995 60.0
58.458408851 70.0
58.463332707 60.0
58.468256563 52.0
58.473180419 63.0
58.478104275 54.0
58.483028131 64.0
58.487951987 53.0
58.492875843 64.0
58.497799699 56.0
58.502723555 63.0
58.507647411 57.0
58.512571267 59.0
58.517495123 49.0
58.522418980 48.0
58.527342836 51.0
58.532266692 53.0
58.537190548 59.0
58.542114404 60.0
58.547038260 54.0
58.551962116 62.0
58.556885972 57.0
58.561809828 58.0
58.566733684 67.0
58.571657540 55.0
58.576581396 62.0
58.581505252 53.0
58.586429108 69.0
58.591352964 56.0
58.596276820 60.0
58.601200676 46.0
58.606124532 56.0
58.611048388 59.0
58.615972244 61.0
58.620896100 45.0
58.625819956 58.0
58.630743812 61.0
58.635667668 55.0
58.640591524 52.0
58.645515380 52.0
58.650439236 53.0
58.655363092 50.0
58.660286948 66.0
58.665210804 51.0
58.670134660 67.0
58.675058516 48.0
58.679982372 64.0
58.684906228 72.0
58.689830084 69.0
58.694753940 43.0
58.699677796 46.0
58.704601652 55.0
58.709525508 61.0
58.714449364 60.0
58.719373220 56.0
58.724297076 50.0
58.729220932 49.0
58.734144788 55.0
58.739068644 48.0
58.743992500 59.0
58.748916356 69.0
58.753840212 62.0
58.758764068 66.0
58.763687924 79.0
58.768611780 53.0
58.773535636 52.0
58.778459492 49.0
58.783383348 70.0
58.788307204 69.0
58.793231060 57.0
58.798154916 64.0
58.803078772 61.0
58.808002628 51.0
58.812926484 61.0
58.817850340 48.0
58.822774196 67.0
58.827698052 63.0
58.832621908 58.0
58.837545764 44.0
58.842469620 57.0
58.847393476 57.0
58.852317332 60.0
58.857241188 51.0
58.862165044 49.0
58.867088900 64.0
58.872012756 63.0
58.876936612 60.0
58.881860468 71.0
58.886784324 39.0
58.891708181 39.0
58.896632037 55.0
58.901555893 44.0
58.906479749 62.0
58.911403605 65.0
58.916327461 49.0
58.921251317 73.0
58.926175173 45.0
58.931099029 63.0
58.936022885 47.0
58.940946741 49.0
58.945870597 64.0
58.950794453 48.0
58.955718309 49.0
58.960642165 54.0
58.965566021 48.0
58.970489877 60.0
58.975413733 64.0
58.980337589 44.0
58.985261445 59.0
58.990185301 49.0
58.995109157 61.0
59.000033013 61.0
59.004956869 55.0
59.009880725 48.0
59.014804581 55.0
59.019728437 74.0
59.024652293 54.0
59.029576149 56.0
59.034500005 67.0
59.039423861 58.0
59.044347717 51.0
59.049271573 56.0
59.054195429 46.0
59.059119285 56.0
59.064043141 60.0
59.068966997 53.0
59.073890853 65.0
59.078814709 74.0
59.083738565 56.0
59.088662421 57.0
59.093586277 61.0
59.098510133 65.0
59.103433989 49.0
59.108357845 66.0
59.113281701 57.0
59.118205557 52.0
59.123129413 58.0
59.128053269 54.0
59.132977125 55.0
59.137900981 62.0
59.142824837 55.0
59.147748693 47.0
59.152672549 52.0
59.157596405 54.0
59.162520261 62.0
59.167444117 54.0
59.172367973 43.0
59.177291829 47.0
59.182215685 57.0
59.187139541 64.0
59.192063397 62.0
59.196987253 61.0
59.201911109 62.0
59.206834965 71.0
59.211758821 62.0
59.216682677 61.0
59.221606533 59.0
59.226530389 58.0
59.231454245 58.0
59.236378101 59.0
59.241301957 64.0
59.246225813 68.0
59.251149669 55.0
59.256073525 48.0
59.260997382 66.0
59.265921238 68.0
59.270845094 52.0
59.275768950 69.0
59.280692806 64.0
59.285616662 59.0
59.290540518 66.0
59.295464374 55.0
59.300388230 65.0
59.305312086 53.0
59.310235942 51.0
59.315159798 65.0
59.320083654 58.0
59.325007510 62.0
59.329931366 58.0
59.334855222 56.0
59.339779078 58.0
59.344702934 59.0
59.349626790 48.0
59.354550646 57.0
59.359474502 60.0
59.364398358 57.0
59.369322214 68.0
59.374246070 60.0
59.379169926 63.0
59.384093782 55.0
59.389017638 49.0
59.393941494 49.0
59.398865350 47.0
59.403789206 60.0
59.408713062 61.0
59.413636918 43.0
59.418560774 47.0
59.423484630 57.0
59.428408486 64.0
59.433332342 59.0
59.438256198 55.0
59.443180054 47.0
59.448103910 66.0
59.453027766 59.0
59.457951622 58.0
59.462875478 68.0
59.467799334 43.0
59.472723190 53.0
59.477647046 55.0
59.482570902 62.0
59.487494758 61.0
59.492418614 60.0
59.497342470 67.0
59.502266326 58.0
59.507190182 53.0
59.512114038 58.0
59.517037894 51.0
59.521961750 56.0
59.526885606 56.0
59.531809462 64.0
59.536733318 65.0
59.541657174 88.0
59.546581030 59.0
59.551504886 51.0
59.556428742 41.0
59.561352598 54.0
59.566276454 59.0
59.571200310 51.0
59.576124166 53.0
59.581048022 56.0
59.585971878 66.0
59.590895734 47.0
59.595819590 65.0
59.600743446 73.0
59.605667302 65.0
59.610591158 56.0
59.615515014 48.0
59.620438870 52.0
59.625362726 66.0
59.630286582 61.0
59.635210439 50.0
59.640134295 57.0
59.645058151 48.0
59.649982007 72.0
59.654905863 60.0
59.659829719 46.0
59.664753575 55.0
59.669677431 79.0
59.674601287 53.0
59.679525143 52.0
59.684448999 57.0
59.689372855 59.0
59.694296711 69.0
59.699220567 74.0
59.704144423 56.0
59.709068279 52.0
59.713992135 63.0
59.718915991 61.0
59.723839847 47.0
59.728763703 71.0
59.733687559 57.0
59.738611415 55.0
59.743535271 76.0
59.748459127 53.0
59.753382983 51.0
59.758306839 58.0
59.763230695 41.0
59.768154551 68.0
59.773078407 64.0
59.778002263 65.0
59.782926119 63.0
59.787849975 49.0
59.792773831 65.0
59.797697687 46.0
59.802621543 57.0
59.807545399 61.0
59.812469255 49.0
59.817393111 43.0
59.822316967 58.0
59.827240823 52.0
59.832164679 54.0
59.837088535 60.0
59.842012391 50.0
59.846936247 63.0
59.851860103 53.0
59.856783959 66.0
59.861707815 58.0
59.866631671 48.0
59.871555527 76.0
59.876479383 57.0
59.881403239 71.0
59.886327095 52.0
59.891250951 77.0
59.896174807 54.0
59.901098663 61.0
59.906022519 46.0
59.910946375 61.0
59.915870231 64.0
59.920794087 64.0
59.925717943 42.0
59.930641799 67.0
59.935565655 51.0
59.940489511 66.0
59.945413367 55.0
59.950337223 56.0
59.955261079 53.0
59.960184935 55.0
59.965108791 61.0
59.970032647 53.0
59.974956503 53.0
59.979880359 53.0
59.984804215 43.0
59.989728071 67.0
59.994651927 47.0
59.999575783 66.0
60.004499640 66.0
60.009423496 44.0
60.014347352 61.0
60.019271208 48.0
60.024195064 56.0
60.029118920 48.0
60.034042776 58.0
60.038966632 63.0
60.043890488 70.0
60.048814344 46.0
60.053738200 48.0
60.058662056 52.0
60.063585912 67.0
60.068509768 59.0
60.073433624 60.0
60.078357480 54.0
60.083281336 44.0
60.088205192 65.0
60.093129048 54.0
60.098052904 58.0
60.102976760 55.0
60.107900616 56.0
60.112824472 54.0
60.117748328 60.0
60.122672184 53.0
60.127596040 54.0
60.132519896 59.0
60.137443752 57.0
60.142367608 66.0
60.147291464 56.0
60.152215320 69.0
60.157139176 77.0
60.162063032 50.0
60.166986888 50.0
60.171910744 59.0
60.176834600 55.0
60.181758456 44.0
60.186682312 62.0
60.191606168 58.0
60.196530024 51.0
60.201453880 60.0
60.206377736 56.0
60.211301592 66.0
60.216225448 47.0
60.221149304 66.0
60.226073160 56.0
60.230997016 69.0
60.235920872 56.0
60.240844728 51.0
60.245768584 55.0
60.250692440 65.0
60.255616296 67.0
60.260540152 55.0
60.265464008 60.0
60.270387864 53.0
60.275311720 54.0
60.280235576 50.0
60.285159432 75.0
60.290083288 56.0
60.295007144 60.0
60.299931000 76.0
60.304854856 64.0
60.309778712 62.0
60.314702568 70.0
60.319626424 62.0
60.324550280 54.0
60.329474136 60.0
60.334397992 69.0
60.339321848 65.0
60.344245704 72.0
60.349169560 47.0
60.354093416 74.0
60.359017272 78.0
60.363941128 50.0
60.368864984 57.0
60.373788841 65.0
60.378712697 56.0
60.383636553 66.0
60.388560409 68.0
60.393484265 56.0
60.398408121 61.0
60.403331977 60.0
60.408255833 46.0
60.413179689 98.0
60.418103545 60.0
60.423027401 47.0
60.427951257 68.0
60.432875113 63.0
60.437798969 63.0
60.442722825 69.0
60.447646681 62.0
60.452570537 69.0
60.457494393 77.0
60.462418249 59.0
60.467342105 62.0
60.472265961 54.0
60.477189817 66.0
60.482113673 85.0
60.487037529 55.0
60.491961385 63.0
60.496885241 61.0
60.501809097 60.0
60.506732953 57.0
60.511656809 61.0
60.516580665 64.0
60.521504521 63.0
60.526428377 76.0
60.531352233 70.0
60.536276089 52.0
60.541199945 54.0
60.546123801 62.0
60.551047657 75.0
60.555971513 65.0
60.560895369 61.0
60.565819225 50.0
60.570743081 60.0
60.575666937 70.0
60.580590793 67.0
60.585514649 72.0
60.590438505 69.0
60.595362361 61.0
60.600286217 57.0
60.605210073 82.0
60.610133929 83.0
60.615057785 65.0
60.619981641 70.0
60.624905497 62.0
60.629829353 68.0
60.634753209 62.0
60.639677065 66.0
60.644600921 75.0
60.649524777 77.0
60.654448633 53.0
60.659372489 50.0
60.664296345 75.0
60.669220201 69.0
60.674144057 73.0
60.679067913 54.0
60.683991769 77.0
60.688915625 69.0
60.693839481 81.0
60.698763337 79.0
60.703687193 68.0
60.708611049 91.0
60.713534905 79.0
60.718458761 80.0
60.723382617 66.0
60.728306473 82.0
60.733230329 85.0
60.738154185 84.0
60.743078042 74.0
60.748001898 94.0
60.752925754 102.0
60.757849610 87.0
60.762773466 111.0
60.767697322 108.0
60.772621178 120.0
60.777545034 129.0
60.782468890 120.0
60.787392746 146.0
60.792316602 162.0
60.797240458 201.0
60.802164314 200.0
60.807088170 277.0
60.812012026 341.0
60.816935882 393.0
60.821859738 490.0
60.826783594 498.0
60.831707450 643.0
60.836631306 672.0
60.841555162 730.0
60.846479018 768.0
60.851402874 732.0
60.856326730 766.0
60.861250586 656.0
60.866174442 596.0
60.871098298 520.0
60.876022154 477.0
60.880946010 379.0
60.885869866 377.0
60.890793722 334.0
60.895717578 297.0
60.900641434 287.0
60.905565290 340.0
60.910489146 317.0
60.915413002 316.0
60.920336858 295.0
60.925260714 287.0
60.930184570 284.0
60.935108426 272.0
60.940032282 273.0
60.944956138 210.0
60.949879994 175.0
60.954803850 192.0
60.959727706 155.0
60.964651562 141.0
60.969575418 152.0
60.974499274 106.0
60.979423130 101.0
60.984346986 120.0
60.989270842 123.0
60.994194698 123.0
60.999118554 95.0
61.004042410 91.0
61.008966266 80.0
61.013890122 114.0
61.018813978 82.0
61.023737834 90.0
61.028661690 87.0
61.033585546 96.0
61.038509402 76.0
61.043433258 83.0
61.048357114 72.0
61.053280970 94.0
61.058204826 86.0
61.063128682 76.0
61.068052538 75.0
61.072976394 77.0
61.077900250 79.0
61.082824106 81.0
61.087747962 84.0
61.092671818 61.0
61.097595674 72.0
61.102519530 84.0
61.107443386 58.0
61.112367243 98.0
61.117291099 74.0
61.122214955 59.0
61.127138811 64.0
61.132062667 63.0
61.136986523 63.0
61.141910379 58.0
61.146834235 68.0
61.151758091 68.0
61.156681947 81.0
61.161605803 66.0
61.166529659 66.0
61.171453515 80.0
61.176377371 61.0
61.181301227 83.0
61.186225083 79.0
61.191148939 68.0
61.196072795 91.0
61.200996651 70.0
61.205920507 70.0
61.210844363 77.0
61.215768219 65.0
61.220692075 53.0
61.225615931 67.0
61.230539787 72.0
61.235463643 88.0
61.240387499 63.0
61.245311355 53.0
61.250235211 64.0
61.255159067 60.0
61.260082923 59.0
61.265006779 69.0
61.269930635 60.0
61.274854491 70.0
61.279778347 67.0
61.284702203 62.0
61.289626059 76.0
61.294549915 70.0
61.299473771 68.0
61.304397627 69.0
61.309321483 67.0
61.314245339 66.0
61.319169195 59.0
61.324093051 73.0
61.329016907 65.0
61.333940763 68.0
61.338864619 80.0
61.343788475 60.0
61.348712331 74.0
61.353636187 57.0
61.358560043 59.0
61.363483899 74.0
61.368407755 62.0
61.373331611 64.0
61.378255467 58.0
61.383179323 80.0
61.388103179 70.0
61.393027035 81.0
61.397950891 43.0
61.402874747 66.0
61.407798603 70.0
61.412722459 59.0
61.417646315 69.0
61.422570171 57.0
61.427494027 72.0
61.432417883 58.0
61.437341739 63.0
61.442265595 56.0
61.447189451 73.0
61.452113307 69.0
61.457037163 72.0
61.461961019 69.0
61.466884875 57.0
61.471808731 53.0
61.476732587 53.0
61.481656443 69.0
61.486580300 72.0
61.491504156 55.0
61.496428012 54.0
61.501351868 74.0
61.506275724 61.0
61.511199580 79.0
61.516123436 70.0
61.521047292 67.0
61.525971148 57.0
61.530895004 63.0
61.535818860 60.0
61.540742716 52.0
61.545666572 62.0
61.550590428 73.0
61.555514284 66.0
61.560438140 59.0
61.565361996 74.0
61.570285852 61.0
61.575209708 60.0
61.580133564 69.0
61.585057420 61.0
61.589981276 72.0
61.594905132 54.0
61.599828988 53.0
61.604752844 72.0
61.609676700 70.0
61.614600556 58.0
61.619524412 63.0
61.624448268 55.0
61.629372124 60.0
61.634295980 59.0
61.639219836 72.0
61.644143692 62.0
61.649067548 78.0
61.653991404 46.0
61.658915260 76.0
61.663839116 71.0
61.668762972 74.0
61.673686828 63.0
61.678610684 58.0
61.683534540 56.0
61.688458396 51.0
61.693382252 71.0
61.698306108 63.0
61.703229964 59.0
61.708153820 60.0
61.713077676 75.0
61.718001532 59.0
61.722925388 73.0
61.727849244 73.0
61.732773100 60.0
61.737696956 64.0
61.742620812 52.0
61.747544668 58.0
61.752468524 61.0
61.757392380 55.0
61.762316236 64.0
61.767240092 68.0
61.772163948 68.0
61.777087804 59.0
61.782011660 66.0
61.786935516 79.0
61.791859372 63.0
61.796783228 65.0
61.801707084 75.0
61.806630940 79.0
61.811554796 62.0
61.816478652 67.0
61.821402508 56.0
61.826326364 70.0
61.831250220 66.0
61.836174076 61.0
61.841097932 62.0
61.846021788 81.0
61.850945644 68.0
61.855869501 69.0
61.860793357 50.0
61.865717213 62.0
61.870641069 66.0
61.875564925 70.0
61.880488781 65.0
61.885412637 61.0
61.890336493 68.0
61.895260349 65.0
61.900184205 68.0
61.905108061 52.0
61.910031917 86.0
61.914955773 57.0
61.919879629 77.0
61.924803485 75.0
61.929727341 58.0
61.934651197 57.0
61.939575053 60.0
61.944498909 61.0
61.949422765 53.0
61.954346621 61.0
61.959270477 68.0
61.964194333 64.0
61.969118189 70.0
61.974042045 70.0
61.978965901 72.0
61.983889757 61.0
61.988813613 76.0
61.993737469 69.0
61.998661325 54.0
62.003585181 60.0
62.008509037 50.0
62.013432893 70.0
62.018356749 62.0
62.023280605 83.0
62.028204461 62.0
62.033128317 57.0
62.038052173 63.0
62.042976029 48.0
62.047899885 67.0
62.052823741 63.0
62.057747597 61.0
62.062671453 64.0
62.067595309 56.0
62.072519165 83.0
62.077443021 66.0
62.082366877 74.0
62.087290733 62.0
62.092214589 60.0
62.097138445 58.0
62.102062301 65.0
62.106986157 66.0
62.111910013 55.0
62.116833869 69.0
62.121757725 72.0
62.126681581 64.0
62.131605437 67.0
62.136529293 56.0
62.141453149 63.0
62.146377005 59.0
62.151300861 62.0
62.156224717 94.0
62.161148573 59.0
62.166072429 62.0
62.170996285 68.0
62.175920141 71.0
62.180843997 66.0
62.185767853 66.0
62.190691709 49.0
62.195615565 63.0
62.200539421 72.0
62.205463277 74.0
62.210387133 56.0
62.215310989 65.0
62.220234845 64.0
62.225158702 58.0
62.230082558 71.0
62.235006414 69.0
62.239930270 67.0
62.244854126 53.0
62.249777982 57.0
62.254701838 66.0
62.259625694 72.0
62.264549550 73.0
62.269473406 59.0
62.274397262 55.0
62.279321118 71.0
62.284244974 65.0
62.289168830 78.0
62.294092686 79.0
62.299016542 76.0
62.303940398 79.0
62.308864254 72.0
62.313788110 68.0
62.318711966 68.0
62.323635822 56.0
62.328559678 61.0
62.333483534 63.0
62.338407390 70.0
62.343331246 58.0
62.348255102 63.0
62.353178958 69.0
62.358102814 49.0
62.363026670 73.0
62.367950526 59.0
62.372874382 72.0
62.377798238 60.0
62.382722094 66.0
62.387645950 70.0
62.392569806 67.0
62.397493662 77.0
62.402417518 61.0
62.407341374 68.0
62.412265230 63.0
62.417189086 84.0
62.422112942 61.0
62.427036798 61.0
62.431960654 70.0
62.436884510 55.0
62.441808366 73.0
62.446732222 64.0
62.451656078 57.0
62.456579934 70.0
62.461503790 62.0
62.466427646 74.0
62.471351502 55.0
62.476275358 71.0
62.481199214 65.0
62.486123070 60.0
62.491046926 64.0
62.495970782 73.0
62.500894638 57.0
62.505818494 68.0
62.510742350 64.0
62.515666206 70.0
62.520590062 61.0
62.525513918 66.0
62.530437774 69.0
62.535361630 69.0
62.540285486 58.0
62.545209342 73.0
62.550133198 68.0
62.555057054 77.0
62.559980910 89.0
62.564904766 64.0
62.569828622 56.0
62.574752478 56.0
62.579676334 57.0
62.584600190 63.0
62.589524046 60.0
62.594447903 71.0
62.599371759 79.0
62.604295615 70.0
62.609219471 40.0
62.614143327 68.0
62.619067183 64.0
62.623991039 65.0
62.628914895 59.0
62.633838751 65.0
62.638762607 64.0
62.643686463 59.0
62.648610319 68.0
62.653534175 78.0
62.658458031 70.0
62.663381887 74.0
62.668305743 60.0
62.673229599 67.0
62.678153455 63.0
62.683077311 60.0
62.688001167 69.0
62.692925023 73.0
62.697848879 71.0
62.702772735 78.0
62.707696591 62.0
62.712620447 58.0
62.717544303 74.0
62.722468159 65.0
62.727392015 75.0
62.732315871 55.0
62.737239727 66.0
62.742163583 44.0
62.747087439 74.0
62.752011295 78.0
62.756935151 58.0
62.761859007 64.0
62.766782863 67.0
62.771706719 60.0
62.776630575 65.0
62.781554431 64.0
62.786478287 77.0
62.791402143 63.0
62.796325999 70.0
62.801249855 70.0
62.806173711 57.0
62.811097567 64.0
62.816021423 57.0
62.820945279 62.0
62.825869135 73.0
62.830792991 62.0
62.835716847 79.0
62.840640703 63.0
62.845564559 80.0
62.850488415 72.0
62.855412271 79.0
62.860336127 66.0
62.865259983 62.0
62.870183839 63.0
62.875107695 67.0
62.880031551 73.0
62.884955407 71.0
62.889879263 85.0
62.894803119 59.0
62.899726975 60.0
62.904650831 62.0
62.909574687 72.0
62.914498543 75.0
62.919422399 65.0
62.924346255 77.0
62.929270111 66.0
62.934193967 77.0
62.939117823 76.0
62.944041679 70.0
62.948965535 71.0
62.953889391 58.0
62.958813247 66.0
62.963737104 71.0
62.968660960 59.0
62.973584816 75.0
62.978508672 60.0
62.983432528 69.0
62.988356384 72.0
62.993280240 72.0
62.998204096 70.0
63.003127952 72.0
63.008051808 79.0
63.012975664 65.0
63.017899520 61.0
63.022823376 77.0
63.027747232 77.0
63.032671088 73.0
63.037594944 69.0
63.042518800 58.0
63.047442656 68.0
63.052366512 70.0
63.057290368 77.0
63.062214224 67.0
63.067138080 52.0
63.072061936 70.0
63.076985792 68.0
63.081909648 76.0
63.086833504 77.0
63.091757360 92.0
63.096681216 62.0
63.101605072 79.0
63.106528928 72.0
63.111452784 55.0
63.116376640 74.0
63.121300496 60.0
63.126224352 78.0
63.131148208 89.0
63.136072064 79.0
63.140995920 74.0
63.145919776 64.0
63.150843632 67.0
63.155767488 73.0
63.160691344 78.0
63.165615200 60.0
63.170539056 71.0
63.175462912 68.0
63.180386768 71.0
63.185310624 69.0
63.190234480 62.0
63.195158336 70.0
63.200082192 69.0
63.205006048 69.0
63.209929904 63.0
63.214853760 66.0
63.219777616 67.0
63.224701472 76.0
63.229625328 81.0
63.234549184 74.0
63.239473040 72.0
63.244396896 77.0
63.249320752 79.0
63.254244608 71.0
63.259168464 56.0
63.264092320 51.0
63.269016176 89.0
63.273940032 58.0
63.278863888 84.0
63.283787744 83.0
63.288711600 71.0
63.293635456 74.0
63.298559312 67.0
63.303483168 71.0
63.308407024 73.0
63.313330880 93.0
63.318254736 62.0
63.323178592 92.0
63.328102448 85.0
63.333026304 81.0
63.337950161 73.0
63.342874017 79.0
63.347797873 72.0
63.352721729 72.0
63.357645585 69.0
63.362569441 63.0
63.367493297 73.0
63.372417153 81.0
63.377341009 62.0
63.382264865 68.0
63.387188721 60.0
63.392112577 60.0
63.397036433 64.0
63.401960289 69.0
63.406884145 68.0
63.411808001 77.0
63.416731857 66.0
63.421655713 75.0
63.426579569 71.0
63.431503425 93.0
63.436427281 61.0
63.441351137 90.0
63.446274993 74.0
63.451198849 70.0
63.456122705 87.0
63.461046561 70.0
63.465970417 59.0
63.470894273 70.0
63.475818129 72.0
63.480741985 62.0
63.485665841 55.0
63.490589697 83.0
63.495513553 65.0
63.500437409 77.0
63.505361265 78.0
63.510285121 72.0
63.515208977 64.0
63.520132833 76.0
63.525056689 72.0
63.529980545 73.0
63.534904401 84.0
63.539828257 73.0
63.544752113 80.0
63.549675969 84.0
63.554599825 70.0
63.559523681 59.0
63.564447537 80.0
63.569371393 74.0
63.574295249 84.0
63.579219105 69.0
63.584142961 89.0
63.589066817 78.0
63.593990673 60.0
63.598914529 69.0
63.603838385 60.0
63.608762241 89.0
63.613686097 87.0
63.618609953 68.0
63.623533809 75.0
63.628457665 79.0
63.633381521 73.0
63.638305377 72.0
63.643229233 79.0
63.648153089 84.0
63.653076945 82.0
63.658000801 83.0
63.662924657 74.0
63.667848513 84.0
63.672772369 79.0
63.677696225 70.0
63.682620081 89.0
63.687543937 89.0
63.692467793 84.0
63.697391649 93.0
63.702315505 76.0
63.707239362 84.0
63.712163218 101.0
63.717087074 85.0
63.722010930 59.0
63.726934786 75.0
63.731858642 61.0
63.736782498 90.0
63.741706354 61.0
63.746630210 95.0
63.751554066 81.0
63.756477922 77.0
63.761401778 75.0
63.766325634 88.0
63.771249490 86.0
63.776173346 84.0
63.781097202 83.0
63.786021058 90.0
63.790944914 76.0
63.795868770 89.0
63.800792626 86.0
63.805716482 94.0
63.810640338 92.0
63.815564194 65.0
63.820488050 92.0
63.825411906 84.0
63.830335762 100.0
63.835259618 86.0
63.840183474 79.0
63.845107330 92.0
63.850031186 93.0
63.854955042 91.0
63.859878898 89.0
63.864802754 77.0
63.869726610 106.0
63.874650466 92.0
63.879574322 95.0
63.884498178 100.0
63.889422034 72.0
63.894345890 87.0
63.899269746 90.0
63.904193602 69.0
63.909117458 85.0
63.914041314 116.0
63.918965170 88.0
63.923889026 84.0
63.928812882 110.0
63.933736738 89.0
63.938660594 92.0
63.943584450 92.0
63.948508306 82.0
63.953432162 68.0
63.958356018 86.0
63.963279874 97.0
63.968203730 127.0
63.973127586 96.0
63.978051442 83.0
63.982975298 97.0
63.987899154 85.0
63.992823010 79.0
63.997746866 91.0
64.002670722 84.0
64.007594578 116.0
64.012518434 100.0
64.017442290 89.0
64.022366146 87.0
64.027290002 100.0
64.032213858 100.0
64.037137714 95.0
64.042061570 106.0
64.046985426 89.0
64.051909282 104.0
64.056833138 100.0
64.061756994 98.0
64.066680850 127.0
64.071604706 94.0
64.076528563 102.0
64.081452419 82.0
64.086376275 121.0
64.091300131 99.0
64.096223987 101.0
64.101147843 103.0
64.106071699 121.0
64.110995555 103.0
64.115919411 107.0
64.120843267 106.0
64.125767123 122.0
64.130690979 111.0
64.135614835 109.0
64.140538691 99.0
64.145462547 89.0
64.150386403 106.0
64.155310259 114.0
64.160234115 89.0
64.165157971 124.0
64.170081827 94.0
64.175005683 110.0
64.179929539 102.0
64.184853395 110.0
64.189777251 118.0
64.194701107 127.0
64.199624963 135.0
64.204548819 114.0
64.209472675 113.0
64.214396531 136.0
64.219320387 117.0
64.224244243 124.0
64.229168099 115.0
64.234091955 112.0
64.239015811 143.0
64.243939667 123.0
64.248863523 103.0
64.253787379 142.0
64.258711235 122.0
64.263635091 126.0
64.268558947 127.0
64.273482803 157.0
64.278406659 126.0
64.283330515 150.0
64.288254371 138.0
64.293178227 130.0
64.298102083 129.0
64.303025939 147.0
64.307949795 143.0
64.312873651 144.0
64.317797507 145.0
64.322721363 140.0
64.327645219 134.0
64.332569075 133.0
64.337492931 146.0
64.342416787 149.0
64.347340643 143.0
64.352264499 148.0
64.357188355 158.0
64.362112211 167.0
64.367036067 128.0
64.371959923 151.0
64.376883779 160.0
64.381807635 170.0
64.386731491 156.0
64.391655347 173.0
64.396579203 171.0
64.401503059 173.0
64.406426915 182.0
64.411350771 175.0
64.416274627 162.0
64.421198483 160.0
64.426122339 171.0
64.431046195 178.0
64.435970051 215.0
64.440893907 173.0
64.445817764 204.0
64.450741620 208.0
64.455665476 203.0
64.460589332 208.0
64.465513188 213.0
64.470437044 199.0
64.475360900 232.0
64.480284756 209.0
64.485208612 263.0
64.490132468 233.0
64.495056324 266.0
64.499980180 268.0
64.504904036 241.0
64.509827892 238.0
64.514751748 213.0
64.519675604 241.0
64.524599460 290.0
64.529523316 301.0
64.534447172 287.0
64.539371028 281.0
64.544294884 289.0
64.549218740 290.0
64.554142596 295.0
64.559066452 319.0
64.563990308 330.0
64.568914164 343.0
64.573838020 307.0
64.578761876 340.0
64.583685732 349.0
64.588609588 392.0
64.593533444 385.0
64.598457300 344.0
64.603381156 406.0
64.608305012 391.0
64.613228868 410.0
64.618152724 446.0
64.623076580 421.0
64.628000436 469.0
64.632924292 458.0
64.637848148 454.0
64.642772004 482.0
64.647695860 517.0
64.652619716 504.0
64.657543572 542.0
64.662467428 546.0
64.667391284 555.0
64.672315140 559.0
64.677238996 575.0
64.682162852 630.0
64.687086708 658.0
64.692010564 622.0
64.696934420 691.0
64.701858276 641.0
64.706782132 668.0
64.711705988 764.0
64.716629844 799.0
64.721553700 779.0
64.726477556 805.0
64.731401412 871.0
64.736325268 930.0
64.741249124 837.0
64.746172980 922.0
64.751096836 964.0
64.756020692 1078.0
64.760944548 1144.0
64.765868404 1166.0
64.770792260 1194.0
64.775716116 1224.0
64.780639972 1330.0
64.785563828 1373.0
64.790487684 1369.0
64.795411540 1441.0
64.800335396 1496.0
64.805259252 1582.0
64.810183108 1588.0
64.815106965 1670.0
64.820030821 1777.0
64.824954677 1823.0
64.829878533 1916.0
64.834802389 1985.0
64.839726245 2015.0
64.844650101 2095.0
64.849573957 2172.0
64.854497813 2269.0
64.859421669 2210.0
64.864345525 2228.0
64.869269381 2391.0
64.874193237 2391.0
64.879117093 2402.0
64.884040949 2405.0
64.888964805 2496.0
64.893888661 2562.0
64.898812517 2500.0
64.903736373 2546.0
64.908660229 2623.0
64.913584085 2580.0
64.918507941 2600.0
64.923431797 2624.0
64.928355653 2602.0
64.933279509 2661.0
64.938203365 2669.0
64.943127221 2666.0
64.948051077 2640.0
64.952974933 2705.0
64.957898789 2612.0
64.962822645 2544.0
64.967746501 2563.0
64.972670357 2501.0
64.977594213 2484.0
64.982518069 2487.0
64.987441925 2451.0
64.992365781 2237.0
64.997289637 2329.0
65.002213493 2360.0
65.007137349 2269.0
65.012061205 2261.0
65.016985061 2204.0
65.021908917 2248.0
65.026832773 2197.0
65.031756629 2147.0
65.036680485 2098.0
65.041604341 1975.0
65.046528197 2075.0
65.051452053 2036.0
65.056375909 2010.0
65.061299765 1850.0
65.066223621 1913.0
65.071147477 1869.0
65.076071333 1877.0
65.080995189 1852.0
65.085919045 1849.0
65.090842901 1731.0
65.095766757 1692.0
65.100690613 1738.0
65.105614469 1667.0
65.110538325 1599.0
65.115462181 1561.0
65.120386037 1566.0
65.125309893 1499.0
65.130233749 1533.0
65.135157605 1445.0
65.140081461 1384.0
65.145005317 1344.0
65.149929173 1361.0
65.154853029 1297.0
65.159776885 1299.0
65.164700741 1216.0
65.169624597 1167.0
65.174548453 1119.0
65.179472309 1094.0
65.184396165 1049.0
65.189320022 979.0
65.194243878 980.0
65.199167734 910.0
65.204091590 928.0
65.209015446 854.0
65.213939302 814.0
65.218863158 767.0
65.223787014 754.0
65.228710870 692.0
65.233634726 681.0
65.238558582 688.0
65.243482438 632.0
65.248406294 626.0
65.253330150 615.0
65.258254006 528.0
65.263177862 526.0
65.268101718 543.0
65.273025574 544.0
65.277949430 479.0
65.282873286 460.0
65.287797142 458.0
65.292720998 445.0
65.297644854 431.0
65.302568710 395.0
65.307492566 405.0
65.312416422 391.0
65.317340278 347.0
65.322264134 365.0
65.327187990 349.0
65.332111846 374.0
65.337035702 336.0
65.341959558 357.0
65.346883414 325.0
65.351807270 310.0
65.356731126 300.0
65.361654982 285.0
65.366578838 289.0
65.371502694 266.0
65.376426550 281.0
65.381350406 258.0
65.386274262 256.0
65.391198118 233.0
65.396121974 225.0
65.401045830 224.0
65.405969686 227.0
65.410893542 211.0
65.415817398 201.0
65.420741254 212.0
65.425665110 206.0
65.430588966 216.0
65.435512822 216.0
65.440436678 186.0
65.445360534 188.0
65.450284390 215.0
65.455208246 170.0
65.460132102 184.0
65.465055958 167.0
65.469979814 168.0
65.474903670 180.0
65.479827526 178.0
65.484751382 182.0
65.489675238 169.0
65.494599094 169.0
65.499522950 179.0
65.504446806 160.0
65.509370662 173.0
65.514294518 178.0
65.519218374 166.0
65.524142230 185.0
65.529066086 144.0
65.533989942 141.0
65.538913798 146.0
65.543837654 158.0
65.548761510 132.0
65.553685366 130.0
65.558609223 140.0
65.563533079 119.0
65.568456935 136.0
65.573380791 127.0
65.578304647 150.0
65.583228503 130.0
65.588152359 145.0
65.593076215 133.0
65.598000071 143.0
65.602923927 143.0
65.607847783 133.0
65.612771639 127.0
65.617695495 122.0
65.622619351 123.0
65.627543207 155.0
65.632467063 116.0
65.637390919 132.0
65.642314775 116.0
65.647238631 135.0
65.652162487 111.0
65.657086343 121.0
65.662010199 152.0
65.666934055 111.0
65.671857911 121.0
65.676781767 124.0
65.681705623 102.0
65.686629479 108.0
65.691553335 111.0
65.696477191 122.0
65.701401047 118.0
65.706324903 119.0
65.711248759 108.0
65.716172615 120.0
65.721096471 125.0
65.726020327 134.0
65.730944183 124.0
65.735868039 110.0
65.740791895 113.0
65.745715751 128.0
65.750639607 120.0
65.755563463 104.0
65.760487319 105.0
65.765411175 105.0
65.770335031 116.0
65.775258887 117.0
65.780182743 123.0
65.785106599 101.0
65.790030455 115.0
65.794954311 102.0
65.799878167 119.0
65.804802023 122.0
65.809725879 116.0
65.814649735 115.0
65.819573591 122.0
65.824497447 113.0
65.829421303 99.0
65.834345159 93.0
65.839269015 115.0
65.844192871 100.0
65.849116727 125.0
65.854040583 121.0
65.858964439 114.0
65.863888295 115.0
65.868812151 92.0
65.873736007 90.0
65.878659863 112.0
65.883583719 100.0
65.888507575 100.0
65.893431431 117.0
65.898355287 117.0
65.903279143 105.0
65.908202999 102.0
65.913126855 105.0
65.918050711 111.0
65.922974567 109.0
65.927898424 124.0
65.932822280 107.0
65.937746136 113.0
65.942669992 123.0
65.947593848 129.0
65.952517704 117.0
65.957441560 108.0
65.962365416 113.0
65.967289272 106.0
65.972213128 125.0
65.977136984 119.0
65.982060840 114.0
65.986984696 120.0
65.991908552 115.0
65.996832408 121.0
66.001756264 92.0
66.006680120 127.0
66.011603976 107.0
66.016527832 95.0
66.021451688 107.0
66.026375544 96.0
66.031299400 109.0
66.036223256 133.0
66.041147112 104.0
66.046070968 124.0
66.050994824 112.0
66.055918680 106.0
66.060842536 109.0
66.065766392 124.0
66.070690248 118.0
66.075614104 117.0
66.080537960 119.0
66.085461816 116.0
66.090385672 112.0
66.095309528 127.0
66.100233384 112.0
66.105157240 115.0
66.110081096 122.0
66.115004952 102.0
66.119928808 97.0
66.124852664 110.0
66.129776520 120.0
66.134700376 108.0
66.139624232 115.0
66.144548088 112.0
66.149471944 127.0
66.154395800 108.0
66.159319656 126.0
66.164243512 116.0
66.169167368 118.0
66.174091224 124.0
66.179015080 117.0
66.183938936 107.0
66.188862792 103.0
66.193786648 134.0
66.198710504 122.0
66.203634360 133.0
66.208558216 116.0
66.213482072 125.0
66.218405928 125.0
66.223329784 130.0
66.228253640 121.0
66.233177496 109.0
66.238101352 113.0
66.243025208 120.0
66.247949064 142.0
66.252872920 121.0
66.257796776 131.0
66.262720632 109.0
66.267644488 122.0
66.272568344 130.0
66.277492200 129.0
66.282416056 123.0
66.287339912 134.0
66.292263768 108.0
66.297187625 137.0
66.302111481 122.0
66.307035337 121.0
66.311959193 130.0
66.316883049 126.0
66.321806905 106.0
66.326730761 118.0
66.331654617 102.0
66.336578473 136.0
66.341502329 127.0
66.346426185 131.0
66.351350041 112.0
66.356273897 133.0
66.361197753 119.0
66.366121609 124.0
66.371045465 124.0
66.375969321 131.0
66.380893177 127.0
66.385817033 113.0
66.390740889 139.0
66.395664745 127.0
66.400588601 132.0
66.405512457 125.0
66.410436313 131.0
66.415360169 143.0
66.420284025 145.0
66.425207881 126.0
66.430131737 128.0
66.435055593 135.0
66.439979449 127.0
66.444903305 122.0
66.449827161 122.0
66.454751017 135.0
66.459674873 136.0
66.464598729 150.0
66.469522585 154.0
66.474446441 135.0
66.479370297 161.0
66.484294153 135.0
66.489218009 136.0
66.494141865 150.0
66.499065721 130.0
66.503989577 148.0
66.508913433 134.0
66.513837289 134.0
66.518761145 160.0
66.523685001 114.0
66.528608857 145.0
66.533532713 138.0
66.538456569 138.0
66.543380425 135.0
66.548304281 146.0
66.553228137 133.0
66.558151993 159.0
66.563075849 138.0
66.567999705 142.0
66.572923561 160.0
66.577847417 142.0
66.582771273 134.0
66.587695129 141.0
66.592618985 131.0
66.597542841 147.0
66.602466697 159.0
66.607390553 155.0
66.612314409 151.0
66.617238265 149.0
66.622162121 146.0
66.627085977 145.0
66.632009833 174.0
66.636933689 124.0
66.641857545 151.0
66.646781401 152.0
66.651705257 157.0
66.656629113 157.0
66.661552969 172.0
66.666476826 140.0
66.671400682 160.0
66.676324538 128.0
66.681248394 144.0
66.686172250 141.0
66.691096106 154.0
66.696019962 175.0
66.700943818 163.0
66.705867674 159.0
66.710791530 145.0
66.715715386 127.0
66.720639242 169.0
66.725563098 152.0
66.730486954 151.0
66.735410810 164.0
66.740334666 156.0
66.745258522 163.0
66.750182378 158.0
66.755106234 158.0
66.760030090 147.0
66.764953946 158.0
66.769877802 165.0
66.774801658 167.0
66.779725514 149.0
66.784649370 153.0
66.789573226 180.0
66.794497082 163.0
66.799420938 177.0
66.804344794 162.0
66.809268650 155.0
66.814192506 163.0
66.819116362 148.0
66.824040218 159.0
66.828964074 162.0
66.833887930 174.0
66.838811786 196.0
66.843735642 164.0
66.848659498 174.0
66.853583354 175.0
66.858507210 162.0
66.863431066 144.0
66.868354922 189.0
66.873278778 169.0
66.878202634 186.0
66.883126490 170.0
66.888050346 202.0
66.892974202 203.0
66.897898058 145.0
66.902821914 191.0
66.907745770 166.0
66.912669626 156.0
66.917593482 191.0
66.922517338 202.0
66.927441194 166.0
66.932365050 180.0
66.937288906 181.0
66.942212762 185.0
66.947136618 167.0
66.952060474 185.0
66.956984330 193.0
66.961908186 161.0
66.966832042 192.0
66.971755898 182.0
66.976679754 190.0
66.981603610 175.0
66.986527466 175.0
66.991451322 186.0
66.996375178 193.0
67.001299034 191.0
67.006222890 173.0
67.011146746 190.0
67.016070602 189.0
67.020994458 191.0
67.025918314 204.0
67.030842170 166.0
67.035766026 166.0
67.040689883 189.0
67.045613739 215.0
67.050537595 196.0
67.055461451 255.0
67.060385307 220.0
67.065309163 198.0
67.070233019 189.0
67.075156875 200.0
67.080080731 201.0
67.085004587 212.0
67.089928443 190.0
67.094852299 206.0
67.099776155 257.0
67.104700011 198.0
67.109623867 198.0
67.114547723 208.0
67.119471579 255.0
67.124395435 215.0
67.129319291 215.0
67.134243147 221.0
67.139167003 190.0
67.144090859 203.0
67.149014715 202.0
67.153938571 264.0
67.158862427 264.0
67.163786283 286.0
67.168710139 266.0
67.173633995 271.0
67.178557851 264.0
67.183481707 264.0
67.188405563 212.0
67.193329419 276.0
67.198253275 218.0
67.203177131 263.0
67.208100987 268.0
67.213024843 212.0
67.217948699 257.0
67.222872555 274.0
67.227796411 273.0
67.232720267 217.0
67.237644123 264.0
67.242567979 277.0
67.247491835 279.0
67.252415691 266.0
67.257339547 293.0
67.262263403 309.0
67.267187259 217.0
67.272111115 317.0
67.277034971 298.0
67.281958827 295.0
67.286882683 255.0
67.291806539 291.0
67.296730395 324.0
67.301654251 289.0
67.306578107 300.0
67.311501963 283.0
67.316425819 324.0
67.321349675 338.0
67.326273531 333.0
67.331197387 285.0
67.336121243 337.0
67.341045099 285.0
67.345968955 321.0
67.350892811 283.0
67.355816667 323.0
67.360740523 318.0
67.365664379 321.0
67.370588235 326.0
67.375512091 314.0
67.380435947 355.0
67.385359803 341.0
67.390283659 369.0
67.395207515 317.0
67.400131371 342.0
67.405055227 332.0
67.409979084 363.0
67.414902940 359.0
67.419826796 342.0
67.424750652 351.0
67.429674508 339.0
67.434598364 363.0
67.439522220 351.0
67.444446076 371.0
67.449369932 374.0
67.454293788 366.0
67.459217644 364.0
67.464141500 343.0
67.469065356 346.0
67.473989212 382.0
67.478913068 372.0
67.483836924 383.0
67.488760780 378.0
67.493684636 374.0
67.498608492 353.0
67.503532348 366.0
67.508456204 391.0
67.513380060 383.0
67.518303916 383.0
67.523227772 408.0
67.528151628 392.0
67.533075484 408.0
67.537999340 421.0
67.542923196 422.0
67.547847052 406.0
67.552770908 440.0
67.557694764 452.0
67.562618620 411.0
67.567542476 466.0
67.572466332 479.0
67.577390188 452.0
67.582314044 434.0
67.587237900 444.0
67.592161756 465.0
67.597085612 457.0
67.602009468 480.0
67.606933324 479.0
67.611857180 484.0
67.616781036 463.0
67.621704892 489.0
67.626628748 471.0
67.631552604 517.0
67.636476460 529.0
67.641400316 512.0
67.646324172 520.0
67.651248028 506.0
67.656171884 522.0
67.661095740 550.0
67.666019596 530.0
67.670943452 533.0
67.675867308 555.0
67.680791164 557.0
67.685715020 570.0
67.690638876 594.0
67.695562732 581.0
67.700486588 619.0
67.705410444 698.0
67.710334300 678.0
67.715258156 675.0
67.720182012 690.0
67.725105868 670.0
67.730029724 743.0
67.734953580 746.0
67.739877436 803.0
67.744801292 798.0
67.749725148 914.0
67.754649004 957.0
67.759572860 911.0
67.764496716 1041.0
67.769420572 1055.0
67.774344428 1098.0
67.779268285 1212.0
67.784192141 1263.0
67.789115997 1303.0
67.794039853 1285.0
67.798963709 1447.0
67.803887565 1471.0
67.808811421 1536.0
67.813735277 1588.0
67.818659133 1629.0
67.823582989 1674.0
67.828506845 1764.0
67.833430701 1721.0
67.838354557 1724.0
67.843278413 1811.0
67.848202269 1834.0
67.853126125 1712.0
67.858049981 1834.0
67.862973837 1830.0
67.867897693 1765.0
67.872821549 1914.0
67.877745405 1822.0
67.882669261 1775.0
67.887593117 1788.0
67.892516973 1717.0
67.897440829 1776.0
67.902364685 1730.0
67.907288541 1737.0
67.912212397 1747.0
67.917136253 1657.0
67.922060109 1718.0
67.926983965 1746.0
67.931907821 1693.0
67.936831677 1768.0
67.941755533 1803.0
67.946679389 1710.0
67.951603245 1875.0
67.956527101 1877.0
67.961450957 1973.0
67.966374813 1919.0
67.971298669 2034.0
67.976222525 2124.0
67.981146381 2156.0
67.986070237 2292.0
67.990994093 2306.0
67.995917949 2422.0
68.000841805 2539.0
68.005765661 2734.0
68.010689517 2869.0
68.015613373 3024.0
68.020537229 3197.0
68.025461085 3308.0
68.030384941 3637.0
68.035308797 3865.0
68.040232653 3986.0
68.045156509 4295.0
68.050080365 4654.0
68.055004221 5101.0
68.059928077 5442.0
68.064851933 6142.0
68.069775789 6321.0
68.074699645 7328.0
68.079623501 7574.0
68.084547357 8993.0
68.089471213 9325.0
68.094395069 11526.0
68.099318925 12169.0
68.104242781 15004.0
68.109166637 16575.0
68.114090493 20379.0
68.119014349 24299.0
68.123938205 29848.0
68.128862061 38502.0
68.133785917 48715.0
68.138709773 72362.0
68.143633629 90259.0
68.148557486 143465.0
68.153481342 161735.0
68.158405198 217697.0
68.163329054 220730.0
68.168252910 236194.0
68.173176766 223887.0
68.178100622 191881.0
68.183024478 172069.0
68.187948334 118143.0
68.192872190 105577.0
68.197796046 70077.0
68.202719902 63741.0
68.207643758 43555.0
68.212567614 39734.0
68.217491470 28212.0
68.222415326 25185.0
68.227339182 19993.0
68.232263038 17703.0
68.237186894 14847.0
68.242110750 12861.0
68.247034606 11780.0
68.251958462 10275.0
68.256882318 10204.0
68.261806174 9095.0
68.266730030 9042.0
68.271653886 8628.0
68.276577742 8568.0
68.281501598 8836.0
68.286425454 9227.0
68.291349310 9916.0
68.296273166 10698.0
68.301197022 11783.0
68.306120878 13431.0
68.311044734 15375.0
68.315968590 18382.0
68.320892446 22577.0
68.325816302 28192.0
68.330740158 36370.0
68.335664014 49078.0
68.340587870 64177.0
68.345511726 80728.0
68.350435582 94903.0
68.355359438 104867.0
68.360283294 109201.0
68.365207150 106384.0
68.370131006 97640.0
68.375054862 84667.0
68.379978718 69641.0
68.384902574 55869.0
68.389826430 44142.0
68.394750286 34399.0
68.399674142 27220.0
68.404597998 21510.0
68.409521854 17736.0
68.414445710 14368.0
68.419369566 12165.0
68.424293422 10003.0
68.429217278 8644.0
68.434141134 7494.0
68.439064990 6495.0
68.443988846 5933.0
68.448912702 5115.0
68.453836558 4606.0
68.458760414 4330.0
68.463684270 3954.0
68.468608126 3642.0
68.473531982 3456.0
68.478455838 3242.0
68.483379694 3088.0
68.488303550 2880.0
68.493227406 2840.0
68.498151262 2678.0
68.503075118 2515.0
68.507998974 2372.0
68.512922830 2266.0
68.517846687 2050.0
68.522770543 2067.0
68.527694399 1967.0
68.532618255 1911.0
68.537542111 1894.0
68.542465967 1761.0
68.547389823 1714.0
68.552313679 1651.0
68.557237535 1590.0
68.562161391 1549.0
68.567085247 1572.0
68.572009103 1423.0
68.576932959 1415.0
68.581856815 1453.0
68.586780671 1391.0
68.591704527 1278.0
68.596628383 1290.0
68.601552239 1250.0
68.606476095 1223.0
68.611399951 1124.0
68.616323807 1119.0
68.621247663 1085.0
68.626171519 1024.0
68.631095375 1076.0
68.636019231 1026.0
68.640943087 1028.0
68.645866943 991.0
68.650790799 950.0
68.655714655 967.0
68.660638511 926.0
68.665562367 932.0
68.670486223 882.0
68.675410079 915.0
68.680333935 853.0
68.685257791 805.0
68.690181647 818.0
68.695105503 712.0
68.700029359 760.0
68.704953215 762.0
68.709877071 818.0
68.714800927 689.0
68.719724783 750.0
68.724648639 720.0
68.729572495 669.0
68.734496351 680.0
68.739420207 667.0
68.744344063 663.0
68.749267919 727.0
68.754191775 657.0
68.759115631 620.0
68.764039487 642.0
68.768963343 625.0
68.773887199 597.0
68.778811055 642.0
68.783734911 622.0
68.788658767 590.0
68.793582623 554.0
68.798506479 602.0
68.803430335 553.0
68.808354191 569.0
68.813278047 545.0
68.818201903 532.0
68.823125759 530.0
68.828049615 522.0
68.832973471 512.0
68.837897327 465.0
68.842821183 479.0
68.847745039 463.0
68.852668895 459.0
68.857592751 433.0
68.862516607 464.0
68.867440463 494.0
68.872364319 449.0
68.877288175 434.0
68.882212031 487.0
68.887135887 436.0
68.892059744 397.0
68.896983600 434.0
68.901907456 424.0
68.906831312 424.0
68.911755168 406.0
68.916679024 422.0
68.921602880 406.0
68.926526736 408.0
68.931450592 397.0
68.936374448 398.0
68.941298304 359.0
68.946222160 377.0
68.951146016 363.0
68.956069872 393.0
68.960993728 419.0
68.965917584 371.0
68.970841440 353.0
68.975765296 385.0
68.980689152 340.0
68.985613008 367.0
68.990536864 365.0
68.995460720 343.0
69.000384576 342.0
69.005308432 319.0
69.010232288 342.0
69.015156144 371.0
69.020080000 364.0
69.025003856 325.0
69.029927712 325.0
69.034851568 308.0
69.039775424 314.0
69.044699280 323.0
69.049623136 299.0
69.054546992 330.0
69.059470848 308.0
69.064394704 330.0
69.069318560 340.0
69.074242416 324.0
69.079166272 302.0
69.084090128 303.0
69.089013984 293.0
69.093937840 286.0
69.098861696 296.0
69.103785552 301.0
69.108709408 303.0
69.113633264 263.0
69.118557120 288.0
69.123480976 283.0
69.128404832 325.0
69.133328688 306.0
69.138252544 293.0
69.143176400 225.0
69.148100256 289.0
69.153024112 207.0
69.157947968 265.0
69.162871824 271.0
69.167795680 263.0
69.172719536 268.0
69.177643392 260.0
69.182567248 192.0
69.187491104 210.0
69.192414960 255.0
69.197338816 255.0
69.202262672 200.0
69.207186528 215.0
69.212110384 219.0
69.217034240 259.0
69.221958096 187.0
69.226881952 192.0
69.231805808 207.0
69.236729664 258.0
69.241653520 192.0
69.246577376 188.0
69.251501232 192.0
69.256425088 183.0
69.261348945 198.0
69.266272801 185.0
69.271196657 194.0
69.276120513 200.0
69.281044369 211.0
69.285968225 188.0
69.290892081 188.0
69.295815937 202.0
69.300739793 182.0
69.305663649 205.0
69.310587505 187.0
69.315511361 196.0
69.320435217 206.0
69.325359073 169.0
69.330282929 181.0
69.335206785 198.0
69.340130641 187.0
69.345054497 137.0
69.349978353 172.0
69.354902209 177.0
69.359826065 181.0
69.364749921 159.0
69.369673777 173.0
69.374597633 175.0
69.379521489 172.0
69.384445345 189.0
69.389369201 159.0
69.394293057 158.0
69.399216913 144.0
69.404140769 162.0
69.409064625 171.0
69.413988481 173.0
69.418912337 159.0
69.423836193 171.0
69.428760049 132.0
69.433683905 159.0
69.438607761 169.0
69.443531617 154.0
69.448455473 173.0
69.453379329 167.0
69.458303185 149.0
69.463227041 146.0
69.468150897 146.0
69.473074753 146.0
69.477998609 168.0
69.482922465 174.0
69.487846321 148.0
69.492770177 157.0
69.497694033 134.0
69.502617889 141.0
69.507541745 141.0
69.512465601 149.0
69.517389457 139.0
69.522313313 144.0
69.527237169 123.0
69.532161025 125.0
69.537084881 144.0
69.542008737 133.0
69.546932593 128.0
69.551856449 149.0
69.556780305 144.0
69.561704161 96.0
69.566628017 137.0
69.571551873 134.0
69.576475729 130.0
69.581399585 115.0
69.586323441 135.0
69.591247297 148.0
69.596171153 134.0
69.601095009 130.0
69.606018865 110.0
69.610942721 107.0
69.615866577 140.0
69.620790433 109.0
69.625714289 112.0
69.630638146 107.0
69.635562002 125.0
69.640485858 114.0
69.645409714 129.0
69.650333570 134.0
69.655257426 127.0
69.660181282 130.0
69.665105138 116.0
69.670028994 100.0
69.674952850 122.0
69.679876706 127.0
69.684800562 122.0
69.689724418 127.0
69.694648274 117.0
69.699572130 125.0
69.704495986 111.0
69.709419842 116.0
69.714343698 115.0
69.719267554 113.0
69.724191410 121.0
69.729115266 92.0
69.734039122 128.0
69.738962978 115.0
69.743886834 125.0
69.748810690 117.0
69.753734546 119.0
69.758658402 101.0
69.763582258 128.0
69.768506114 101.0
69.773429970 123.0
69.778353826 111.0
69.783277682 114.0
69.788201538 116.0
69.793125394 126.0
69.798049250 134.0
69.802973106 132.0
69.807896962 89.0
69.812820818 111.0
69.817744674 103.0
69.822668530 106.0
69.827592386 118.0
69.832516242 93.0
69.837440098 117.0
69.842363954 105.0
69.847287810 102.0
69.852211666 103.0
69.857135522 115.0
69.862059378 113.0
69.866983234 112.0
69.871907090 110.0
69.876830946 91.0
69.881754802 97.0
69.886678658 103.0
69.891602514 96.0
69.896526370 103.0
69.901450226 109.0
69.906374082 105.0
69.911297938 81.0
69.916221794 107.0
69.921145650 95.0
69.926069506 99.0
69.930993362 112.0
69.935917218 101.0
69.940841074 94.0
69.945764930 102.0
69.950688786 97.0
69.955612642 93.0
69.960536498 93.0
69.965460354 102.0
69.970384210 114.0
69.975308066 93.0
69.980231922 96.0
69.985155778 111.0
69.990079634 103.0
69.995003490 99.0
69.999927347 92.0
70.004851203 90.0
70.009775059 74.0
70.014698915 92.0
70.019622771 91.0
70.024546627 100.0
70.029470483 85.0
70.034394339 97.0
70.039318195 76.0
70.044242051 110.0
70.049165907 102.0
70.054089763 85.0
70.059013619 76.0
70.063937475 82.0
70.068861331 89.0
70.073785187 95.0
70.078709043 88.0
70.083632899 97.0
70.088556755 97.0
70.093480611 82.0
70.098404467 83.0
70.103328323 103.0
70.108252179 79.0
70.113176035 76.0
70.118099891 70.0
70.123023747 99.0
70.127947603 94.0
70.132871459 102.0
70.137795315 86.0
70.142719171 90.0
70.147643027 82.0
70.152566883 96.0
70.157490739 75.0
70.162414595 82.0
70.167338451 90.0
70.172262307 91.0
70.177186163 90.0
70.182110019 75.0
70.187033875 87.0
70.191957731 72.0
70.196881587 96.0
70.201805443 88.0
70.206729299 94.0
70.211653155 85.0
70.216577011 85.0
70.221500867 69.0
70.226424723 93.0
70.231348579 88.0
70.236272435 75.0
70.241196291 86.0
70.246120147 100.0
70.251044003 92.0
70.255967859 93.0
70.260891715 94.0
70.265815571 74.0
70.270739427 92.0
70.275663283 77.0
70.280587139 80.0
70.285510995 89.0
70.290434851 91.0
70.295358707 93.0
70.300282563 96.0
70.305206419 76.0
70.310130275 84.0
70.315054131 83.0
70.319977987 76.0
70.324901843 76.0
70.329825699 84.0
70.334749555 94.0
70.339673411 81.0
70.344597267 64.0
70.349521123 86.0
70.354444979 76.0
70.359368835 95.0
70.364292691 71.0
70.369216548 92.0
70.374140404 80.0
70.379064260 80.0
70.383988116 83.0
70.388911972 81.0
70.393835828 78.0
70.398759684 87.0
70.403683540 91.0
70.408607396 78.0
70.413531252 93.0
70.418455108 79.0
70.423378964 80.0
70.428302820 80.0
70.433226676 81.0
70.438150532 96.0
70.443074388 88.0
70.447998244 74.0
70.452922100 67.0
70.457845956 88.0
70.462769812 87.0
70.467693668 87.0
70.472617524 84.0
70.477541380 84.0
70.482465236 101.0
70.487389092 89.0
70.492312948 66.0
70.497236804 72.0
70.502160660 90.0
70.507084516 76.0
70.512008372 89.0
70.516932228 80.0
70.521856084 74.0
70.526779940 78.0
70.531703796 88.0
70.536627652 52.0
70.541551508 73.0
70.546475364 92.0
70.551399220 76.0
70.556323076 70.0
70.561246932 77.0
70.566170788 69.0
70.571094644 74.0
70.576018500 69.0
70.580942356 86.0
70.585866212 77.0
70.590790068 75.0
70.595713924 75.0
70.600637780 71.0
70.605561636 82.0
70.610485492 60.0
70.615409348 84.0
70.620333204 68.0
70.625257060 75.0
70.630180916 71.0
70.635104772 74.0
70.640028628 69.0
70.644952484 69.0
70.649876340 72.0
70.654800196 92.0
70.659724052 58.0
70.664647908 81.0
70.669571764 65.0
70.674495620 86.0
70.679419476 76.0
70.684343332 89.0
70.689267188 78.0
70.694191044 89.0
70.699114900 79.0
70.704038756 84.0
70.708962612 76.0
70.713886468 71.0
70.718810324 68.0
70.723734180 63.0
70.728658036 74.0
70.733581892 78.0
70.738505748 106.0
70.743429605 76.0
70.748353461 81.0
70.753277317 84.0
70.758201173 71.0
70.763125029 75.0
70.768048885 66.0
70.772972741 95.0
70.777896597 74.0
70.782820453 54.0
70.787744309 77.0
70.792668165 67.0
70.797592021 68.0
70.802515877 66.0
70.807439733 71.0
70.812363589 69.0
70.817287445 56.0
70.822211301 81.0
70.827135157 70.0
70.832059013 78.0
70.836982869 80.0
70.841906725 88.0
70.846830581 78.0
70.851754437 81.0
70.856678293 63.0
70.861602149 77.0
70.866526005 83.0
70.871449861 82.0
70.876373717 80.0
70.881297573 77.0
70.886221429 58.0
70.891145285 66.0
70.896069141 75.0
70.900992997 79.0
70.905916853 69.0
70.910840709 78.0
70.915764565 81.0
70.920688421 70.0
70.925612277 71.0
70.930536133 74.0
70.935459989 77.0
70.940383845 72.0
70.945307701 68.0
70.950231557 72.0
70.955155413 83.0
70.960079269 75.0
70.965003125 81.0
70.969926981 73.0
70.974850837 98.0
70.979774693 77.0
70.984698549 78.0
70.989622405 68.0
70.994546261 64.0
70.999470117 70.0
71.004393973 106.0
71.009317829 76.0
71.014241685 80.0
71.019165541 86.0
71.024089397 78.0
71.029013253 77.0
71.033937109 75.0
71.038860965 62.0
71.043784821 87.0
71.048708677 87.0
71.053632533 71.0
71.058556389 85.0
71.063480245 77.0
71.068404101 86.0
71.073327957 83.0
71.078251813 66.0
71.083175669 55.0
71.088099525 84.0
71.093023381 67.0
71.097947237 63.0
71.102871093 80.0
71.107794949 64.0
71.112718806 68.0
71.117642662 65.0
71.122566518 92.0
71.127490374 69.0
71.132414230 70.0
71.137338086 71.0
71.142261942 76.0
71.147185798 66.0
71.152109654 72.0
71.157033510 58.0
71.161957366 85.0
71.166881222 75.0
71.171805078 72.0
71.176728934 75.0
71.181652790 88.0
71.186576646 83.0
71.191500502 61.0
71.196424358 66.0
71.201348214 85.0
71.206272070 87.0
71.211195926 76.0
71.216119782 67.0
71.221043638 76.0
71.225967494 81.0
71.230891350 80.0
71.235815206 71.0
71.240739062 78.0
71.245662918 65.0
71.250586774 56.0
71.255510630 81.0
71.260434486 96.0
71.265358342 76.0
71.270282198 75.0
71.275206054 69.0
71.280129910 62.0
71.285053766 60.0
71.289977622 81.0
71.294901478 70.0
71.299825334 75.0
71.304749190 64.0
71.309673046 54.0
71.314596902 59.0
71.319520758 60.0
71.324444614 78.0
71.329368470 68.0
71.334292326 63.0
71.339216182 73.0
71.344140038 73.0
71.349063894 80.0
71.353987750 73.0
71.358911606 74.0
71.363835462 74.0
71.368759318 60.0
71.373683174 70.0
71.378607030 72.0
71.383530886 63.0
71.388454742 72.0
71.393378598 66.0
71.398302454 62.0
71.403226310 64.0
71.408150166 69.0
71.413074022 84.0
71.417997878 57.0
71.422921734 73.0
71.427845590 77.0
71.432769446 59.0
71.437693302 79.0
71.442617158 73.0
71.447541014 75.0
71.452464870 61.0
71.457388726 61.0
71.462312582 71.0
71.467236438 59.0
71.472160294 74.0
71.477084150 63.0
71.482008007 66.0
71.486931863 64.0
71.491855719 70.0
71.496779575 71.0
71.501703431 69.0
71.506627287 64.0
71.511551143 69.0
71.516474999 68.0
71.521398855 74.0
71.526322711 80.0
71.531246567 56.0
71.536170423 75.0
71.541094279 58.0
71.546018135 75.0
71.550941991 68.0
71.555865847 75.0
71.560789703 81.0
71.565713559 74.0
71.570637415 78.0
71.575561271 72.0
71.580485127 67.0
71.585408983 66.0
71.590332839 55.0
71.595256695 79.0
71.600180551 67.0
71.605104407 69.0
71.610028263 66.0
71.614952119 67.0
71.619875975 70.0
71.624799831 67.0
71.629723687 75.0
71.634647543 68.0
71.639571399 79.0
71.644495255 86.0
71.649419111 65.0
71.654342967 63.0
71.659266823 80.0
71.664190679 81.0
71.669114535 57.0
71.674038391 60.0
71.678962247 82.0
71.683886103 74.0
71.688809959 65.0
71.693733815 78.0
71.698657671 85.0
71.703581527 75.0
71.708505383 63.0
71.713429239 75.0
71.718353095 76.0
71.723276951 44.0
71.728200807 71.0
71.733124663 73.0
71.738048519 52.0
71.742972375 68.0
71.747896231 63.0
71.752820087 86.0
71.757743943 77.0
71.762667799 70.0
71.767591655 71.0
71.772515511 59.0
71.777439367 71.0
71.782363223 82.0
71.787287079 63.0
71.792210935 71.0
71.797134791 71.0
71.802058647 53.0
71.806982503 65.0
71.811906359 55.0
71.816830215 69.0
71.821754071 69.0
71.826677927 69.0
71.831601783 80.0
71.836525639 68.0
71.841449495 62.0
71.846373351 63.0
71.851297208 77.0
71.856221064 67.0
71.861144920 62.0
71.866068776 55.0
71.870992632 71.0
71.875916488 61.0
71.880840344 67.0
71.885764200 77.0
71.890688056 77.0
71.895611912 58.0
71.900535768 72.0
71.905459624 66.0
71.910383480 45.0
71.915307336 66.0
71.920231192 64.0
71.925155048 49.0
71.930078904 92.0
71.935002760 55.0
71.939926616 68.0
71.944850472 53.0
71.949774328 72.0
71.954698184 52.0
71.959622040 67.0
71.964545896 83.0
71.969469752 65.0
71.974393608 57.0
71.979317464 75.0
71.984241320 56.0
71.989165176 79.0
71.994089032 58.0
71.999012888 61.0
72.003936744 61.0
72.008860600 67.0
72.013784456 64.0
72.018708312 76.0
72.023632168 85.0
72.028556024 72.0
72.033479880 84.0
72.038403736 83.0
72.043327592 83.0
72.048251448 65.0
72.053175304 48.0
72.058099160 54.0
72.063023016 63.0
72.067946872 72.0
72.072870728 62.0
72.077794584 80.0
72.082718440 67.0
72.087642296 68.0
72.092566152 63.0
72.097490008 58.0
72.102413864 63.0
72.107337720 72.0
72.112261576 62.0
72.117185432 64.0
72.122109288 59.0
72.127033144 63.0
72.131957000 70.0
72.136880856 70.0
72.141804712 72.0
72.146728568 63.0
72.151652424 73.0
72.156576280 69.0
72.161500136 71.0
72.166423992 66.0
72.171347848 63.0
72.176271704 73.0
72.181195560 77.0
72.186119416 66.0
72.191043272 69.0
72.195967128 57.0
72.200890984 62.0
72.205814840 66.0
72.210738696 80.0
72.215662552 68.0
72.220586409 69.0
72.225510265 67.0
72.230434121 58.0
72.235357977 72.0
72.240281833 72.0
72.245205689 60.0
72.250129545 68.0
72.255053401 65.0
72.259977257 80.0
72.264901113 63.0
72.269824969 56.0
72.274748825 55.0
72.279672681 71.0
72.284596537 79.0
72.289520393 68.0
72.294444249 59.0
72.299368105 71.0
72.304291961 60.0
72.309215817 67.0
72.314139673 51.0
72.319063529 87.0
72.323987385 62.0
72.328911241 68.0
72.333835097 82.0
72.338758953 62.0
72.343682809 64.0
72.348606665 54.0
72.353530521 48.0
72.358454377 66.0
72.363378233 64.0
72.368302089 65.0
72.373225945 70.0
72.378149801 70.0
72.383073657 64.0
72.387997513 57.0
72.392921369 61.0
72.397845225 56.0
72.402769081 71.0
72.407692937 62.0
72.412616793 70.0
72.417540649 54.0
72.422464505 67.0
72.427388361 72.0
72.432312217 49.0
72.437236073 58.0
72.442159929 77.0
72.447083785 67.0
72.452007641 62.0
72.456931497 71.0
72.461855353 69.0
72.466779209 56.0
72.471703065 58.0
72.476626921 68.0
72.481550777 60.0
72.486474633 74.0
72.491398489 67.0
72.496322345 63.0
72.501246201 65.0
72.506170057 84.0
72.511093913 59.0
72.516017769 70.0
72.520941625 64.0
72.525865481 81.0
72.530789337 50.0
72.535713193 63.0
72.540637049 73.0
72.545560905 61.0
72.550484761 48.0
72.555408617 70.0
72.560332473 79.0
72.565256329 64.0
72.570180185 59.0
72.575104041 58.0
72.580027897 80.0
72.584951753 45.0
72.589875609 61.0
72.594799466 65.0
72.599723322 68.0
72.604647178 54.0
72.609571034 50.0
72.614494890 64.0
72.619418746 56.0
72.624342602 66.0
72.629266458 63.0
72.634190314 58.0
72.639114170 56.0
72.644038026 66.0
72.648961882 48.0
72.653885738 67.0
72.658809594 64.0
72.663733450 69.0
72.668657306 67.0
72.673581162 73.0
72.678505018 65.0
72.683428874 69.0
72.688352730 65.0
72.693276586 78.0
72.698200442 67.0
72.703124298 61.0
72.708048154 69.0
72.712972010 58.0
72.717895866 63.0
72.722819722 52.0
72.727743578 79.0
72.732667434 61.0
72.737591290 53.0
72.742515146 64.0
72.747439002 75.0
72.752362858 60.0
72.757286714 57.0
72.762210570 61.0
72.767134426 57.0
72.772058282 62.0
72.776982138 50.0
72.781905994 66.0
72.786829850 65.0
72.791753706 71.0
72.796677562 72.0
72.801601418 60.0
72.806525274 57.0
72.811449130 58.0
72.816372986 64.0
72.821296842 62.0
72.826220698 64.0
72.831144554 57.0
72.836068410 67.0
72.840992266 63.0
72.845916122 58.0
72.850839978 68.0
72.855763834 75.0
72.860687690 64.0
72.865611546 53.0
72.870535402 66.0
72.875459258 55.0
72.880383114 50.0
72.885306970 57.0
72.890230826 43.0
72.895154682 75.0
72.900078538 50.0
72.905002394 62.0
72.909926250 54.0
72.914850106 63.0
72.919773962 54.0
72.924697818 64.0
72.929621674 60.0
72.934545530 61.0
72.939469386 53.0
72.944393242 50.0
72.949317098 66.0
72.954240954 74.0
72.959164810 57.0
72.964088667 65.0
72.969012523 53.0
72.973936379 58.0
72.978860235 58.0
72.983784091 72.0
72.988707947 74.0
72.993631803 53.0
72.998555659 78.0
73.003479515 71.0
73.008403371 71.0
73.013327227 56.0
73.018251083 65.0
73.023174939 68.0
73.028098795 61.0
73.033022651 64.0
73.037946507 63.0
73.042870363 44.0
73.047794219 67.0
73.052718075 64.0
73.057641931 60.0
73.062565787 56.0
73.067489643 65.0
73.072413499 77.0
73.077337355 55.0
73.082261211 58.0
73.087185067 60.0
73.092108923 72.0
73.097032779 62.0
73.101956635 56.0
73.106880491 62.0
73.111804347 61.0
73.116728203 55.0
73.121652059 74.0
73.126575915 55.0
73.131499771 58.0
73.136423627 62.0
73.141347483 56.0
73.146271339 62.0
73.151195195 57.0
73.156119051 51.0
73.161042907 58.0
73.165966763 54.0
73.170890619 52.0
73.175814475 62.0
73.180738331 62.0
73.185662187 68.0
73.190586043 66.0
73.195509899 48.0
73.200433755 61.0
73.205357611 62.0
73.210281467 58.0
73.215205323 60.0
73.220129179 56.0
73.225053035 63.0
73.229976891 72.0
73.234900747 54.0
73.239824603 74.0
73.244748459 58.0
73.249672315 74.0
73.254596171 61.0
73.259520027 59.0
73.264443883 66.0
73.269367739 62.0
73.274291595 52.0
73.279215451 62.0
73.284139307 56.0
73.289063163 65.0
73.293987019 52.0
73.298910875 66.0
73.303834731 60.0
73.308758587 53.0
73.313682443 52.0
73.318606299 60.0
73.323530155 71.0
73.328454011 60.0
73.333377868 71.0
73.338301724 63.0
73.343225580 57.0
73.348149436 68.0
73.353073292 52.0
73.357997148 66.0
73.362921004 49.0
73.367844860 57.0
73.372768716 43.0
73.377692572 64.0
73.382616428 52.0
73.387540284 65.0
73.392464140 61.0
73.397387996 70.0
73.402311852 64.0
73.407235708 66.0
73.412159564 59.0
73.417083420 64.0
73.422007276 56.0
73.426931132 47.0
73.431854988 64.0
73.436778844 57.0
73.441702700 60.0
73.446626556 56.0
73.451550412 59.0
73.456474268 53.0
73.461398124 58.0
73.466321980 62.0
73.471245836 50.0
73.476169692 71.0
73.481093548 47.0
73.486017404 61.0
73.490941260 55.0
73.495865116 59.0
73.500788972 62.0
73.505712828 64.0
73.510636684 54.0
73.515560540 64.0
73.520484396 68.0
73.525408252 73.0
73.530332108 54.0
73.535255964 45.0
73.540179820 72.0
73.545103676 73.0
73.550027532 64.0
73.554951388 72.0
73.559875244 54.0
73.564799100 58.0
73.569722956 60.0
73.574646812 64.0
73.579570668 58.0
73.584494524 67.0
73.589418380 68.0
73.594342236 61.0
73.599266092 67.0
73.604189948 69.0
73.609113804 60.0
73.614037660 69.0
73.618961516 59.0
73.623885372 57.0
73.628809228 55.0
73.633733084 55.0
73.638656940 54.0
73.643580796 70.0
73.648504652 45.0
73.653428508 64.0
73.658352364 61.0
73.663276220 72.0
73.668200076 58.0
73.673123932 64.0
73.678047788 68.0
73.682971644 71.0
73.687895500 61.0
73.692819356 74.0
73.697743212 64.0
73.702667069 59.0
73.707590925 65.0
73.712514781 54.0
73.717438637 48.0
73.722362493 57.0
73.727286349 54.0
73.732210205 56.0
73.737134061 76.0
73.742057917 70.0
73.746981773 49.0
73.751905629 61.0
73.756829485 65.0
73.761753341 55.0
73.766677197 54.0
73.771601053 59.0
73.776524909 65.0
73.781448765 57.0
73.786372621 53.0
73.791296477 56.0
73.796220333 64.0
73.801144189 70.0
73.806068045 69.0
73.810991901 58.0
73.815915757 70.0
73.820839613 55.0
73.825763469 56.0
73.830687325 79.0
73.835611181 63.0
73.840535037 64.0
73.845458893 79.0
73.850382749 74.0
73.855306605 54.0
73.860230461 63.0
73.865154317 69.0
73.870078173 72.0
73.875002029 73.0
73.879925885 58.0
73.884849741 59.0
73.889773597 62.0
73.894697453 54.0
73.899621309 54.0
73.904545165 73.0
73.909469021 48.0
73.914392877 67.0
73.919316733 61.0
73.924240589 63.0
73.929164445 65.0
73.934088301 55.0
73.939012157 50.0
73.943936013 57.0
73.948859869 63.0
73.953783725 61.0
73.958707581 47.0
73.963631437 52.0
73.968555293 58.0
73.973479149 60.0
73.978403005 57.0
73.983326861 72.0
73.988250717 59.0
73.993174573 48.0
73.998098429 68.0
74.003022285 61.0
74.007946141 71.0
74.012869997 64.0
74.017793853 61.0
74.022717709 45.0
74.027641565 46.0
74.032565421 57.0
74.037489277 52.0
74.042413133 63.0
74.047336989 56.0
74.052260845 67.0
74.057184701 51.0
74.062108557 62.0
74.067032413 58.0
74.071956270 81.0
74.076880126 53.0
74.081803982 65.0
74.086727838 54.0
74.091651694 72.0
74.096575550 66.0
74.101499406 58.0
74.106423262 59.0
74.111347118 59.0
74.116270974 50.0
74.121194830 61.0
74.126118686 42.0
74.131042542 62.0
74.135966398 55.0
74.140890254 61.0
74.145814110 69.0
74.150737966 69.0
74.155661822 59.0
74.160585678 66.0
74.165509534 49.0
74.170433390 66.0
74.175357246 82.0
74.180281102 56.0
74.185204958 54.0
74.190128814 67.0
74.195052670 68.0
74.199976526 50.0
74.204900382 63.0
74.209824238 62.0
74.214748094 56.0
74.219671950 56.0
74.224595806 52.0
74.229519662 51.0
74.234443518 57.0
74.239367374 53.0
74.244291230 63.0
74.249215086 66.0
74.254138942 52.0
74.259062798 62.0
74.263986654 71.0
74.268910510 80.0
74.273834366 72.0
74.278758222 69.0
74.283682078 59.0
74.288605934 60.0
74.293529790 60.0
74.298453646 63.0
74.303377502 60.0
74.308301358 61.0
74.313225214 73.0
74.318149070 78.0
74.323072926 63.0
74.327996782 71.0
74.332920638 64.0
74.337844494 59.0
74.342768350 45.0
74.347692206 69.0
74.352616062 56.0
74.357539918 58.0
74.362463774 57.0
74.367387630 59.0
74.372311486 48.0
74.377235342 50.0
74.382159198 54.0
74.387083054 62.0
74.392006910 60.0
74.396930766 46.0
74.401854622 64.0
74.406778478 57.0
74.411702334 62.0
74.416626190 65.0
74.421550046 58.0
74.426473902 59.0
74.431397758 73.0
74.436321614 48.0
74.441245470 55.0
74.446169327 66.0
74.451093183 63.0
74.456017039 49.0
74.460940895 60.0
74.465864751 56.0
74.470788607 68.0
74.475712463 59.0
74.480636319 79.0
74.485560175 59.0
74.490484031 49.0
74.495407887 63.0
74.500331743 58.0
74.505255599 60.0
74.510179455 53.0
74.515103311 79.0
74.520027167 53.0
74.524951023 49.0
74.529874879 74.0
74.534798735 59.0
74.539722591 69.0
74.544646447 54.0
74.549570303 44.0
74.554494159 60.0
74.559418015 56.0
74.564341871 60.0
74.569265727 49.0
74.574189583 67.0
74.579113439 53.0
74.584037295 54.0
74.588961151 50.0
74.593885007 67.0
74.598808863 57.0
74.603732719 67.0
74.608656575 68.0
74.613580431 63.0
74.618504287 68.0
74.623428143 48.0
74.628351999 45.0
74.633275855 58.0
74.638199711 56.0
74.643123567 57.0
74.648047423 51.0
74.652971279 75.0
74.657895135 52.0
74.662818991 53.0
74.667742847 72.0
74.672666703 68.0
74.677590559 72.0
74.682514415 50.0
74.687438271 75.0
74.692362127 53.0
74.697285983 51.0
74.702209839 70.0
74.707133695 61.0
74.712057551 78.0
74.716981407 58.0
74.721905263 57.0
74.726829119 59.0
74.731752975 65.0
74.736676831 46.0
74.741600687 57.0
74.746524543 50.0
74.751448399 50.0
74.756372255 65.0
74.761296111 58.0
74.766219967 59.0
74.771143823 56.0
74.776067679 63.0
74.780991535 62.0
74.785915391 63.0
74.790839247 51.0
74.795763103 44.0
74.800686959 48.0
74.805610815 58.0
74.810534671 59.0
74.815458528 67.0
74.820382384 65.0
74.825306240 63.0
74.830230096 60.0
74.835153952 78.0
74.840077808 53.0
74.845001664 61.0
74.849925520 65.0
74.854849376 68.0
74.859773232 52.0
74.864697088 62.0
74.869620944 63.0
74.874544800 56.0
74.879468656 61.0
74.884392512 53.0
74.889316368 61.0
74.894240224 61.0
74.899164080 47.0
74.904087936 65.0
74.909011792 69.0
74.913935648 57.0
74.918859504 48.0
74.923783360 69.0
74.928707216 51.0
74.933631072 53.0
74.938554928 62.0
74.943478784 71.0
74.948402640 56.0
74.953326496 47.0
74.958250352 45.0
74.963174208 50.0
74.968098064 71.0
74.973021920 71.0
74.977945776 68.0
74.982869632 54.0
74.987793488 56.0
74.992717344 51.0
74.997641200 70.0
