55.001861930 12.0
55.006785786 10.0
55.011709642 14.0
55.016633498 5.0
55.021557354 9.0
55.026481210 6.0
55.031405066 9.0
55.036328922 8.0
55.041252778 7.0
55.046176634 12.0
55.051100490 12.0
55.056024346 15.0
55.060948202 10.0
55.065872058 9.0
55.070795914 11.0
55.075719770 11.0
55.080643626 8.0
55.085567482 3.0
55.090491338 12.0
55.095415194 9.0
55.100339050 14.0
55.105262906 11.0
55.110186762 6.0
55.115110618 12.0
55.120034474 16.0
55.124958330 10.0
55.129882186 5.0
55.134806042 9.0
55.139729898 12.0
55.144653754 7.0
55.149577610 11.0
55.154501466 10.0
55.159425322 8.0
55.164349178 9.0
55.169273034 12.0
55.174196890 9.0
55.179120746 10.0
55.184044602 5.0
55.188968459 7.0
55.193892315 11.0
55.198816171 11.0
55.203740027 13.0
55.208663883 15.0
55.213587739 7.0
55.218511595 7.0
55.223435451 5.0
55.228359307 9.0
55.233283163 10.0
55.238207019 9.0
55.243130875 12.0
55.248054731 8.0
55.252978587 8.0
55.257902443 6.0
55.262826299 5.0
55.267750155 10.0
55.272674011 7.0
55.277597867 12.0
55.282521723 14.0
55.287445579 8.0
55.292369435 7.0
55.297293291 13.0
55.302217147 10.0
55.307141003 5.0
55.312064859 3.0
55.316988715 4.0
55.321912571 14.0
55.326836427 7.0
55.331760283 13.0
55.336684139 6.0
55.341607995 5.0
55.346531851 9.0
55.351455707 5.0
55.356379563 6.0
55.361303419 8.0
55.366227275 4.0
55.371151131 7.0
55.376074987 5.0
55.380998843 5.0
55.385922699 10.0
55.390846555 10.0
55.395770411 5.0
55.400694267 7.0
55.405618123 11.0
55.410541979 16.0
55.415465835 15.0
55.420389691 7.0
55.425313547 5.0
55.430237403 7.0
55.435161259 8.0
55.440085115 11.0
55.445008971 9.0
55.449932827 7.0
55.454856683 10.0
55.459780539 16.0
55.464704395 10.0
55.469628251 6.0
55.474552107 10.0
55.479475963 17.0
55.484399819 10.0
55.489323675 12.0
55.494247531 11.0
55.499171387 10.0
55.504095243 11.0
55.509019099 10.0
55.513942955 10.0
55.518866811 4.0
55.523790667 7.0
55.528714523 14.0
55.533638379 12.0
55.538562235 7.0
55.543486091 7.0
55.548409947 13.0
55.553333803 11.0
55.558257660 8.0
55.563181516 10.0
55.568105372 11.0
55.573029228 12.0
55.577953084 14.0
55.582876940 11.0
55.587800796 7.0
55.592724652 6.0
55.597648508 8.0
55.602572364 9.0
55.607496220 8.0
55.612420076 7.0
55.617343932 10.0
55.622267788 8.0
55.627191644 11.0
55.632115500 10.0
55.637039356 14.0
55.641963212 9.0
55.646887068 11.0
55.651810924 5.0
55.656734780 10.0
55.661658636 13.0
55.666582492 6.0
55.671506348 10.0
55.676430204 6.0
55.681354060 11.0
55.686277916 9.0
55.691201772 13.0
55.696125628 4.0
55.701049484 11.0
55.705973340 15.0
55.710897196 11.0
55.715821052 9.0
55.720744908 7.0
55.725668764 6.0
55.730592620 13.0
55.735516476 9.0
55.740440332 10.0
55.745364188 4.0
55.750288044 5.0
55.755211900 12.0
55.760135756 6.0
55.765059612 8.0
55.769983468 7.0
55.774907324 5.0
55.779831180 13.0
55.784755036 12.0
55.789678892 5.0
55.794602748 12.0
55.799526604 13.0
55.804450460 4.0
55.809374316 10.0
55.814298172 11.0
55.819222028 8.0
55.824145884 9.0
55.829069740 11.0
55.833993596 12.0
55.838917452 9.0
55.843841308 11.0
55.848765164 5.0
55.853689020 14.0
55.858612876 5.0
55.863536732 9.0
55.868460588 13.0
55.873384444 10.0
55.878308300 10.0
55.883232156 14.0
55.888156012 9.0
55.893079868 9.0
55.898003724 8.0
55.902927580 12.0
55.907851436 11.0
55.912775292 11.0
55.917699148 10.0
55.922623004 14.0
55.927546860 8.0
55.932470717 11.0
55.937394573 6.0
55.942318429 12.0
55.947242285 5.0
55.952166141 8.0
55.957089997 5.0
55.962013853 12.0
55.966937709 4.0
55.971861565 6.0
55.976785421 7.0
55.981709277 7.0
55.986633133 9.0
55.991556989 13.0
55.996480845 8.0
56.001404701 7.0
56.006328557 7.0
56.011252413 12.0
56.016176269 11.0
56.021100125 6.0
56.026023981 5.0
56.030947837 9.0
56.035871693 11.0
56.040795549 12.0
56.045719405 11.0
56.050643261 10.0
56.055567117 9.0
56.060490973 9.0
56.065414829 8.0
56.070338685 11.0
56.075262541 5.0
56.080186397 14.0
56.085110253 13.0
56.090034109 7.0
56.094957965 9.0
56.099881821 16.0
56.104805677 7.0
56.109729533 14.0
56.114653389 10.0
56.119577245 7.0
56.124501101 6.0
56.129424957 1.0
56.134348813 11.0
56.139272669 12.0
56.144196525 14.0
56.149120381 10.0
56.154044237 6.0
56.158968093 13.0
56.163891949 12.0
56.168815805 6.0
56.173739661 13.0
56.178663517 6.0
56.183587373 8.0
56.188511229 5.0
56.193435085 12.0
56.198358941 18.0
56.203282797 7.0
56.208206653 7.0
56.213130509 9.0
56.218054365 10.0
56.222978221 9.0
56.227902077 18.0
56.232825933 10.0
56.237749789 13.0
56.242673645 12.0
56.247597501 7.0
56.252521357 7.0
56.257445213 13.0
56.262369069 15.0
56.267292925 11.0
56.272216781 10.0
56.277140637 12.0
56.282064493 4.0
56.286988349 8.0
56.291912205 8.0
56.296836061 5.0
56.301759918 8.0
56.306683774 10.0
56.311607630 7.0
56.316531486 8.0
56.321455342 19.0
56.326379198 14.0
56.331303054 4.0
56.336226910 10.0
56.341150766 9.0
56.346074622 11.0
56.350998478 13.0
56.355922334 4.0
56.360846190 9.0
56.365770046 7.0
56.370693902 6.0
56.375617758 10.0
56.380541614 6.0
56.385465470 12.0
56.390389326 8.0
56.395313182 10.0
56.400237038 11.0
56.405160894 6.0
56.410084750 11.0
56.415008606 8.0
56.419932462 11.0
56.424856318 7.0
56.429780174 12.0
56.434704030 10.0
56.439627886 9.0
56.444551742 12.0
56.449475598 10.0
56.454399454 14.0
56.459323310 16.0
56.464247166 7.0
56.469171022 8.0
56.474094878 15.0
56.479018734 12.0
56.483942590 6.0
56.488866446 9.0
56.493790302 9.0
56.498714158 11.0
56.503638014 4.0
56.508561870 6.0
56.513485726 12.0
56.518409582 8.0
56.523333438 12.0
56.528257294 13.0
56.533181150 16.0
56.538105006 4.0
56.543028862 3.0
56.547952718 11.0
56.552876574 8.0
56.557800430 14.0
56.562724286 9.0
56.567648142 9.0
56.572571998 7.0
56.577495854 6.0
56.582419710 9.0
56.587343566 9.0
56.592267422 17.0
56.597191278 9.0
56.602115134 5.0
56.607038990 7.0
56.611962846 6.0
56.616886702 1.0
56.621810558 5.0
56.626734414 8.0
56.631658270 4.0
56.636582126 10.0
56.641505982 10.0
56.646429838 12.0
56.651353694 11.0
56.656277550 9.0
56.661201406 8.0
56.666125262 11.0
56.671049119 8.0
56.675972975 9.0
56.680896831 13.0
56.685820687 11.0
56.690744543 9.0
56.695668399 12.0
56.700592255 13.0
56.705516111 9.0
56.710439967 7.0
56.715363823 14.0
56.720287679 13.0
56.725211535 9.0
56.730135391 11.0
56.735059247 5.0
56.739983103 12.0
56.744906959 10.0
56.749830815 14.0
56.754754671 11.0
56.759678527 9.0
56.764602383 9.0
56.769526239 11.0
56.774450095 4.0
56.779373951 9.0
56.784297807 13.0
56.789221663 8.0
56.794145519 3.0
56.799069375 7.0
56.803993231 7.0
56.808917087 7.0
56.813840943 8.0
56.818764799 5.0
56.823688655 10.0
56.828612511 9.0
56.833536367 15.0
56.838460223 6.0
56.843384079 10.0
56.848307935 11.0
56.853231791 14.0
56.858155647 14.0
56.863079503 18.0
56.868003359 13.0
56.872927215 14.0
56.877851071 8.0
56.882774927 12.0
56.887698783 12.0
56.892622639 5.0
56.897546495 7.0
56.902470351 14.0
56.907394207 8.0
56.912318063 9.0
56.917241919 8.0
56.922165775 6.0
56.927089631 10.0
56.932013487 10.0
56.936937343 12.0
56.941861199 18.0
56.946785055 13.0
56.951708911 8.0
56.956632767 11.0
56.961556623 7.0
56.966480479 10.0
56.971404335 7.0
56.976328191 14.0
56.981252047 8.0
56.986175903 9.0
56.991099759 9.0
56.996023615 10.0
57.000947471 8.0
57.005871327 7.0
57.010795183 10.0
57.015719039 5.0
57.020642895 3.0
57.025566751 18.0
57.030490607 11.0
57.035414463 13.0
57.040338320 12.0
57.045262176 11.0
57.050186032 4.0
57.055109888 10.0
57.060033744 4.0
57.064957600 8.0
57.069881456 11.0
57.074805312 7.0
57.079729168 10.0
57.084653024 8.0
57.089576880 11.0
57.094500736 7.0
57.099424592 10.0
57.104348448 6.0
57.109272304 8.0
57.114196160 11.0
57.119120016 13.0
57.124043872 9.0
57.128967728 7.0
57.133891584 7.0
57.138815440 11.0
57.143739296 9.0
57.148663152 8.0
57.153587008 8.0
57.158510864 12.0
57.163434720 6.0
57.168358576 12.0
57.173282432 8.0
57.178206288 8.0
57.183130144 8.0
57.188054000 6.0
57.192977856 15.0
57.197901712 7.0
57.202825568 7.0
57.207749424 5.0
57.212673280 10.0
57.217597136 16.0
57.222520992 8.0
57.227444848 15.0
57.232368704 9.0
57.237292560 13.0
57.242216416 9.0
57.247140272 8.0
57.252064128 9.0
57.256987984 8.0
57.261911840 6.0
57.266835696 9.0
57.271759552 6.0
57.276683408 14.0
57.281607264 6.0
57.286531120 4.0
57.291454976 9.0
57.296378832 7.0
57.301302688 14.0
57.306226544 7.0
57.311150400 14.0
57.316074256 12.0
57.320998112 10.0
57.325921968 9.0
57.330845824 14.0
57.335769680 12.0
57.340693536 9.0
57.345617392 11.0
57.350541248 14.0
57.355465104 14.0
57.360388960 16.0
57.365312816 12.0
57.370236672 13.0
57.375160528 11.0
57.380084384 11.0
57.385008240 13.0
57.389932096 8.0
57.394855952 9.0
57.399779808 14.0
57.404703664 8.0
57.409627521 4.0
57.414551377 9.0
57.419475233 9.0
57.424399089 9.0
57.429322945 16.0
57.434246801 8.0
57.439170657 8.0
57.444094513 8.0
57.449018369 10.0
57.453942225 13.0
57.458866081 10.0
57.463789937 15.0
57.468713793 12.0
57.473637649 16.0
57.478561505 16.0
57.483485361 8.0
57.488409217 11.0
57.493333073 10.0
57.498256929 13.0
57.503180785 8.0
57.508104641 9.0
57.513028497 10.0
57.517952353 12.0
57.522876209 8.0
57.527800065 8.0
57.532723921 9.0
57.537647777 9.0
57.542571633 14.0
57.547495489 12.0
57.552419345 10.0
57.557343201 22.0
57.562267057 10.0
57.567190913 15.0
57.572114769 8.0
57.577038625 10.0
57.581962481 15.0
57.586886337 15.0
57.591810193 12.0
57.596734049 9.0
57.601657905 15.0
57.606581761 15.0
57.611505617 8.0
57.616429473 8.0
57.621353329 14.0
57.626277185 8.0
57.631201041 9.0
57.636124897 9.0
57.641048753 10.0
57.645972609 13.0
57.650896465 8.0
57.655820321 9.0
57.660744177 6.0
57.665668033 14.0
57.670591889 12.0
57.675515745 4.0
57.680439601 7.0
57.685363457 8.0
57.690287313 14.0
57.695211169 13.0
57.700135025 12.0
57.705058881 7.0
57.709982737 12.0
57.714906593 13.0
57.719830449 20.0
57.724754305 9.0
57.729678161 12.0
57.734602017 6.0
57.739525873 11.0
57.744449729 10.0
57.749373585 20.0
57.754297441 15.0
57.759221297 19.0
57.764145153 9.0
57.769069009 20.0
57.773992865 12.0
57.778916721 11.0
57.783840578 8.0
57.788764434 7.0
57.793688290 18.0
57.798612146 17.0
57.803536002 14.0
57.808459858 12.0
57.813383714 15.0
57.818307570 15.0
57.823231426 10.0
57.828155282 15.0
57.833079138 14.0
57.838002994 12.0
57.842926850 19.0
57.847850706 19.0
57.852774562 8.0
57.857698418 12.0
57.862622274 12.0
57.867546130 12.0
57.872469986 10.0
57.877393842 19.0
57.882317698 13.0
57.887241554 12.0
57.892165410 17.0
57.897089266 12.0
57.902013122 19.0
57.906936978 7.0
57.911860834 11.0
57.916784690 10.0
57.921708546 14.0
57.926632402 14.0
57.931556258 15.0
57.936480114 12.0
57.941403970 14.0
57.946327826 12.0
57.951251682 9.0
57.956175538 18.0
57.961099394 7.0
57.966023250 11.0
57.970947106 10.0
57.975870962 15.0
57.980794818 9.0
57.985718674 9.0
57.990642530 12.0
57.995566386 13.0
58.000490242 14.0
58.005414098 13.0
58.010337954 8.0
58.015261810 10.0
58.020185666 5.0
58.025109522 19.0
58.030033378 9.0
58.034957234 6.0
58.039881090 9.0
58.044804946 10.0
58.049728802 11.0
58.054652658 15.0
58.059576514 10.0
58.064500370 10.0
58.069424226 11.0
58.074348082 13.0
58.079271938 15.0
58.084195794 16.0
58.089119650 14.0
58.094043506 15.0
58.098967362 7.0
58.103891218 12.0
58.108815074 10.0
58.113738930 6.0
58.118662786 7.0
58.123586642 9.0
58.128510498 7.0
58.133434354 10.0
58.138358210 7.0
58.143282066 8.0
58.148205922 3.0
58.153129779 9.0
58.158053635 13.0
58.162977491 12.0
58.167901347 9.0
58.172825203 9.0
58.177749059 10.0
58.182672915 9.0
58.187596771 9.0
58.192520627 12.0
58.197444483 9.0
58.202368339 15.0
58.207292195 13.0
58.212216051 13.0
58.217139907 9.0
58.222063763 6.0
58.226987619 9.0
58.231911475 12.0
58.236835331 11.0
58.241759187 10.0
58.246683043 15.0
58.251606899 5.0
58.256530755 9.0
58.261454611 13.0
58.266378467 11.0
58.271302323 9.0
58.276226179 5.0
58.281150035 16.0
58.286073891 12.0
58.290997747 9.0
58.295921603 12.0
58.300845459 8.0
58.305769315 11.0
58.310693171 8.0
58.315617027 15.0
58.320540883 10.0
58.325464739 4.0
58.330388595 6.0
58.335312451 6.0
58.340236307 14.0
58.345160163 8.0
58.350084019 7.0
58.355007875 6.0
58.359931731 12.0
58.364855587 11.0
58.369779443 12.0
58.374703299 8.0
58.379627155 12.0
58.384551011 14.0
58.389474867 7.0
58.394398723 6.0
58.399322579 15.0
58.404246435 11.0
58.409170291 9.0
58.414094147 10.0
58.419018003 7.0
58.423941859 7.0
58.428865715 10.0
58.433789571 11.0
58.438713427 8.0
58.443637283 12.0
58.448561139 9.0
58.453484995 14.0
58.458408851 12.0
58.463332707 5.0
58.468256563 12.0
58.473180419 7.0
58.478104275 13.0
58.483028131 9.0
58.487951987 2.0
58.492875843 18.0
58.497799699 10.0
58.502723555 9.0
58.507647411 12.0
58.512571267 8.0
58.517495123 12.0
58.522418980 10.0
58.527342836 10.0
58.532266692 14.0
58.537190548 7.0
58.542114404 4.0
58.547038260 9.0
58.551962116 15.0
58.556885972 19.0
58.561809828 10.0
58.566733684 7.0
58.571657540 11.0
58.576581396 10.0
58.581505252 9.0
58.586429108 9.0
58.591352964 10.0
58.596276820 16.0
58.601200676 8.0
58.606124532 6.0
58.611048388 7.0
58.615972244 8.0
58.620896100 8.0
58.625819956 7.0
58.630743812 9.0
58.635667668 12.0
58.640591524 12.0
58.645515380 11.0
58.650439236 7.0
58.655363092 9.0
58.660286948 7.0
58.665210804 8.0
58.670134660 13.0
58.675058516 7.0
58.679982372 8.0
58.684906228 8.0
58.689830084 8.0
58.694753940 9.0
58.699677796 12.0
58.704601652 6.0
58.709525508 10.0
58.714449364 10.0
58.719373220 6.0
58.724297076 9.0
58.729220932 10.0
58.734144788 8.0
58.739068644 9.0
58.743992500 8.0
58.748916356 8.0
58.753840212 11.0
58.758764068 8.0
58.763687924 8.0
58.768611780 13.0
58.773535636 9.0
58.778459492 9.0
58.783383348 12.0
58.788307204 16.0
58.793231060 5.0
58.798154916 13.0
58.803078772 9.0
58.808002628 11.0
58.812926484 8.0
58.817850340 15.0
58.822774196 9.0
58.827698052 9.0
58.832621908 9.0
58.837545764 7.0
58.842469620 10.0
58.847393476 7.0
58.852317332 10.0
58.857241188 11.0
58.862165044 10.0
58.867088900 11.0
58.872012756 10.0
58.876936612 6.0
58.881860468 7.0
58.886784324 12.0
58.891708181 7.0
58.896632037 16.0
58.901555893 13.0
58.906479749 8.0
58.911403605 13.0
58.916327461 9.0
58.921251317 13.0
58.926175173 6.0
58.931099029 8.0
58.936022885 7.0
58.940946741 9.0
58.945870597 8.0
58.950794453 8.0
58.955718309 6.0
58.960642165 15.0
58.965566021 12.0
58.970489877 10.0
58.975413733 11.0
58.980337589 12.0
58.985261445 3.0
58.990185301 10.0
58.995109157 7.0
59.000033013 10.0
59.004956869 7.0
59.009880725 10.0
59.014804581 10.0
59.019728437 9.0
59.024652293 15.0
59.029576149 12.0
59.034500005 10.0
59.039423861 12.0
59.044347717 11.0
59.049271573 11.0
59.054195429 7.0
59.059119285 9.0
59.064043141 6.0
59.068966997 12.0
59.073890853 9.0
59.078814709 7.0
59.083738565 6.0
59.088662421 12.0
59.093586277 7.0
59.098510133 9.0
59.103433989 11.0
59.108357845 11.0
59.113281701 14.0
59.118205557 10.0
59.123129413 11.0
59.128053269 16.0
59.132977125 11.0
59.137900981 13.0
59.142824837 12.0
59.147748693 4.0
59.152672549 16.0
59.157596405 10.0
59.162520261 7.0
59.167444117 11.0
59.172367973 11.0
59.177291829 9.0
59.182215685 18.0
59.187139541 10.0
59.192063397 6.0
59.196987253 15.0
59.201911109 10.0
59.206834965 17.0
59.211758821 12.0
59.216682677 8.0
59.221606533 8.0
59.226530389 11.0
59.231454245 12.0
59.236378101 13.0
59.241301957 15.0
59.246225813 7.0
59.251149669 7.0
59.256073525 9.0
59.260997382 8.0
59.265921238 9.0
59.270845094 8.0
59.275768950 8.0
59.280692806 11.0
59.285616662 6.0
59.290540518 5.0
59.295464374 14.0
59.300388230 8.0
59.305312086 9.0
59.310235942 9.0
59.315159798 9.0
59.320083654 8.0
59.325007510 19.0
59.329931366 9.0
59.334855222 12.0
59.339779078 8.0
59.344702934 11.0
59.349626790 14.0
59.354550646 10.0
59.359474502 7.0
59.364398358 14.0
59.369322214 10.0
59.374246070 6.0
59.379169926 10.0
59.384093782 13.0
59.389017638 8.0
59.393941494 15.0
59.398865350 14.0
59.403789206 6.0
59.408713062 11.0
59.413636918 9.0
59.418560774 14.0
59.423484630 14.0
59.428408486 3.0
59.433332342 13.0
59.438256198 9.0
59.443180054 10.0
59.448103910 6.0
59.453027766 10.0
59.457951622 12.0
59.462875478 10.0
59.467799334 9.0
59.472723190 9.0
59.477647046 3.0
59.482570902 12.0
59.487494758 11.0
59.492418614 8.0
59.497342470 17.0
59.502266326 6.0
59.507190182 7.0
59.512114038 8.0
59.517037894 5.0
59.521961750 6.0
59.526885606 7.0
59.531809462 9.0
59.536733318 5.0
59.541657174 15.0
59.546581030 12.0
59.551504886 9.0
59.556428742 4.0
59.561352598 11.0
59.566276454 10.0
59.571200310 14.0
59.576124166 5.0
59.581048022 7.0
59.585971878 7.0
59.590895734 13.0
59.595819590 15.0
59.600743446 8.0
59.605667302 7.0
59.610591158 5.0
59.615515014 12.0
59.620438870 12.0
59.625362726 10.0
59.630286582 8.0
59.635210439 10.0
59.640134295 11.0
59.645058151 18.0
59.649982007 10.0
59.654905863 9.0
59.659829719 7.0
59.664753575 9.0
59.669677431 9.0
59.674601287 7.0
59.679525143 12.0
59.684448999 9.0
59.689372855 13.0
59.694296711 8.0
59.699220567 7.0
59.704144423 8.0
59.709068279 8.0
59.713992135 10.0
59.718915991 10.0
59.723839847 9.0
59.728763703 8.0
59.733687559 10.0
59.738611415 6.0
59.743535271 6.0
59.748459127 2.0
59.753382983 11.0
59.758306839 10.0
59.763230695 8.0
59.768154551 6.0
59.773078407 9.0
59.778002263 5.0
59.782926119 7.0
59.787849975 12.0
59.792773831 7.0
59.797697687 9.0
59.802621543 15.0
59.807545399 9.0
59.812469255 10.0
59.817393111 6.0
59.822316967 8.0
59.827240823 4.0
59.832164679 14.0
59.837088535 14.0
59.842012391 9.0
59.846936247 7.0
59.851860103 10.0
59.856783959 11.0
59.861707815 8.0
59.866631671 8.0
59.871555527 12.0
59.876479383 15.0
59.881403239 10.0
59.886327095 8.0
59.891250951 9.0
59.896174807 8.0
59.901098663 7.0
59.906022519 6.0
59.910946375 12.0
59.915870231 7.0
59.920794087 9.0
59.925717943 11.0
59.930641799 9.0
59.935565655 6.0
59.940489511 11.0
59.945413367 9.0
59.950337223 14.0
59.955261079 6.0
59.960184935 8.0
59.965108791 8.0
59.970032647 11.0
59.974956503 11.0
59.979880359 8.0
59.984804215 14.0
59.989728071 12.0
59.994651927 8.0
59.999575783 6.0
60.004499640 19.0
60.009423496 11.0
60.014347352 8.0
60.019271208 8.0
60.024195064 10.0
60.029118920 12.0
60.034042776 15.0
60.038966632 8.0
60.043890488 11.0
60.048814344 14.0
60.053738200 14.0
60.058662056 13.0
60.063585912 10.0
60.068509768 10.0
60.073433624 5.0
60.078357480 13.0
60.083281336 8.0
60.088205192 9.0
60.093129048 11.0
60.098052904 9.0
60.102976760 9.0
60.107900616 8.0
60.112824472 13.0
60.117748328 10.0
60.122672184 11.0
60.127596040 12.0
60.132519896 15.0
60.137443752 18.0
60.142367608 14.0
60.147291464 7.0
60.152215320 5.0
60.157139176 13.0
60.162063032 14.0
60.166986888 11.0
60.171910744 14.0
60.176834600 10.0
60.181758456 10.0
60.186682312 12.0
60.191606168 14.0
60.196530024 8.0
60.201453880 9.0
60.206377736 12.0
60.211301592 11.0
60.216225448 11.0
60.221149304 19.0
60.226073160 17.0
60.230997016 15.0
60.235920872 19.0
60.240844728 16.0
60.245768584 12.0
60.250692440 14.0
60.255616296 15.0
60.260540152 19.0
60.265464008 13.0
60.270387864 25.0
60.275311720 11.0
60.280235576 16.0
60.285159432 12.0
60.290083288 17.0
60.295007144 10.0
60.299931000 17.0
60.304854856 22.0
60.309778712 12.0
60.314702568 13.0
60.319626424 17.0
60.324550280 20.0
60.329474136 15.0
60.334397992 18.0
60.339321848 14.0
60.344245704 12.0
60.349169560 15.0
60.354093416 10.0
60.359017272 15.0
60.363941128 18.0
60.368864984 13.0
60.373788841 12.0
60.378712697 17.0
60.383636553 7.0
60.388560409 13.0
60.393484265 12.0
60.398408121 17.0
60.403331977 14.0
60.408255833 19.0
60.413179689 14.0
60.418103545 15.0
60.423027401 14.0
60.427951257 20.0
60.432875113 13.0
60.437798969 8.0
60.442722825 11.0
60.447646681 13.0
60.452570537 17.0
60.457494393 18.0
60.462418249 12.0
60.467342105 11.0
60.472265961 9.0
60.477189817 12.0
60.482113673 23.0
60.487037529 19.0
60.491961385 20.0
60.496885241 14.0
60.501809097 14.0
60.506732953 16.0
60.511656809 14.0
60.516580665 13.0
60.521504521 16.0
60.526428377 20.0
60.531352233 14.0
60.536276089 17.0
60.541199945 13.0
60.546123801 21.0
60.551047657 25.0
60.555971513 16.0
60.560895369 17.0
60.565819225 19.0
60.570743081 14.0
60.575666937 18.0
60.580590793 13.0
60.585514649 18.0
60.590438505 17.0
60.595362361 13.0
60.600286217 19.0
60.605210073 16.0
60.610133929 23.0
60.615057785 19.0
60.619981641 16.0
60.624905497 22.0
60.629829353 19.0
60.634753209 23.0
60.639677065 19.0
60.644600921 25.0
60.649524777 32.0
60.654448633 33.0
60.659372489 22.0
60.664296345 31.0
60.669220201 36.0
60.674144057 33.0
60.679067913 44.0
60.683991769 34.0
60.688915625 46.0
60.693839481 40.0
60.698763337 52.0
60.703687193 54.0
60.708611049 56.0
60.713534905 80.0
60.718458761 81.0
60.723382617 101.0
60.728306473 131.0
60.733230329 124.0
60.738154185 182.0
60.743078042 196.0
60.748001898 300.0
60.752925754 330.0
60.757849610 391.0
60.762773466 470.0
60.767697322 508.0
60.772621178 565.0
60.777545034 576.0
60.782468890 606.0
60.787392746 661.0
60.792316602 613.0
60.797240458 636.0
60.802164314 594.0
60.807088170 553.0
60.812012026 505.0
60.816935882 442.0
60.821859738 405.0
60.826783594 332.0
60.831707450 273.0
60.836631306 329.0
60.841555162 258.0
60.846479018 223.0
60.851402874 204.0
60.856326730 211.0
60.861250586 187.0
60.866174442 211.0
60.871098298 184.0
60.876022154 186.0
60.880946010 186.0
60.885869866 152.0
60.890793722 150.0
60.895717578 122.0
60.900641434 96.0
60.905565290 93.0
60.910489146 78.0
60.915413002 86.0
60.920336858 74.0
60.925260714 52.0
60.930184570 80.0
60.935108426 52.0
60.940032282 44.0
60.944956138 53.0
60.949879994 51.0
60.954803850 55.0
60.959727706 34.0
60.964651562 35.0
60.969575418 41.0
60.974499274 36.0
60.979423130 39.0
60.984346986 27.0
60.989270842 43.0
60.994194698 34.0
60.999118554 26.0
61.004042410 24.0
61.008966266 29.0
61.013890122 13.0
61.018813978 27.0
61.023737834 27.0
61.028661690 16.0
61.033585546 30.0
61.038509402 34.0
61.043433258 25.0
61.048357114 21.0
61.053280970 22.0
61.058204826 33.0
61.063128682 27.0
61.068052538 22.0
61.072976394 25.0
61.077900250 21.0
61.082824106 29.0
61.087747962 23.0
61.092671818 25.0
61.097595674 18.0
61.102519530 17.0
61.107443386 24.0
61.112367243 28.0
61.117291099 28.0
61.122214955 16.0
61.127138811 26.0
61.132062667 27.0
61.136986523 27.0
61.141910379 16.0
61.146834235 26.0
61.151758091 21.0
61.156681947 22.0
61.161605803 22.0
61.166529659 23.0
61.171453515 18.0
61.176377371 18.0
61.181301227 24.0
61.186225083 19.0
61.191148939 19.0
61.196072795 14.0
61.200996651 17.0
61.205920507 18.0
61.210844363 16.0
61.215768219 20.0
61.220692075 20.0
61.225615931 16.0
61.230539787 20.0
61.235463643 23.0
61.240387499 17.0
61.245311355 20.0
61.250235211 19.0
61.255159067 14.0
61.260082923 24.0
61.265006779 15.0
61.269930635 18.0
61.274854491 27.0
61.279778347 19.0
61.284702203 15.0
61.289626059 14.0
61.294549915 20.0
61.299473771 18.0
61.304397627 19.0
61.309321483 17.0
61.314245339 14.0
61.319169195 11.0
61.324093051 16.0
61.329016907 18.0
61.333940763 16.0
61.338864619 16.0
61.343788475 7.0
61.348712331 9.0
61.353636187 19.0
61.358560043 21.0
61.363483899 8.0
61.368407755 20.0
61.373331611 24.0
61.378255467 16.0
61.383179323 12.0
61.388103179 14.0
61.393027035 20.0
61.397950891 14.0
61.402874747 17.0
61.407798603 18.0
61.412722459 14.0
61.417646315 19.0
61.422570171 12.0
61.427494027 18.0
61.432417883 20.0
61.437341739 10.0
61.442265595 20.0
61.447189451 15.0
61.452113307 10.0
61.457037163 12.0
61.461961019 14.0
61.466884875 24.0
61.471808731 14.0
61.476732587 21.0
61.481656443 16.0
61.486580300 10.0
61.491504156 16.0
61.496428012 18.0
61.501351868 21.0
61.506275724 13.0
61.511199580 6.0
61.516123436 12.0
61.521047292 17.0
61.525971148 12.0
61.530895004 15.0
61.535818860 20.0
61.540742716 19.0
61.545666572 15.0
61.550590428 13.0
61.555514284 16.0
61.560438140 21.0
61.565361996 14.0
61.570285852 13.0
61.575209708 16.0
61.580133564 17.0
61.585057420 17.0
61.589981276 19.0
61.594905132 14.0
61.599828988 20.0
61.604752844 16.0
61.609676700 10.0
61.614600556 16.0
61.619524412 17.0
61.624448268 14.0
61.629372124 20.0
61.634295980 14.0
61.639219836 11.0
61.644143692 18.0
61.649067548 23.0
61.653991404 17.0
61.658915260 13.0
61.663839116 16.0
61.668762972 8.0
61.673686828 21.0
61.678610684 14.0
61.683534540 18.0
61.688458396 15.0
61.693382252 14.0
61.698306108 18.0
61.703229964 10.0
61.708153820 19.0
61.713077676 14.0
61.718001532 12.0
61.722925388 13.0
61.727849244 14.0
61.732773100 18.0
61.737696956 21.0
61.742620812 17.0
61.747544668 17.0
61.752468524 14.0
61.757392380 16.0
61.762316236 16.0
61.767240092 11.0
61.772163948 10.0
61.777087804 16.0
61.782011660 18.0
61.786935516 22.0
61.791859372 15.0
61.796783228 9.0
61.801707084 18.0
61.806630940 17.0
61.811554796 12.0
61.816478652 13.0
61.821402508 15.0
61.826326364 22.0
61.831250220 16.0
61.836174076 14.0
61.841097932 15.0
61.846021788 22.0
61.850945644 14.0
61.855869501 17.0
61.860793357 16.0
61.865717213 15.0
61.870641069 7.0
61.875564925 24.0
61.880488781 21.0
61.885412637 13.0
61.890336493 12.0
61.895260349 11.0
61.900184205 13.0
61.905108061 15.0
61.910031917 8.0
61.914955773 18.0
61.919879629 14.0
61.924803485 15.0
61.929727341 15.0
61.934651197 12.0
61.939575053 15.0
61.944498909 15.0
61.949422765 16.0
61.954346621 21.0
61.959270477 19.0
61.964194333 8.0
61.969118189 18.0
61.974042045 19.0
61.978965901 24.0
61.983889757 24.0
61.988813613 15.0
61.993737469 21.0
61.998661325 13.0
62.003585181 21.0
62.008509037 17.0
62.013432893 16.0
62.018356749 12.0
62.023280605 15.0
62.028204461 17.0
62.033128317 14.0
62.038052173 15.0
62.042976029 22.0
62.047899885 13.0
62.052823741 14.0
62.057747597 12.0
62.062671453 10.0
62.067595309 15.0
62.072519165 14.0
62.077443021 13.0
62.082366877 13.0
62.087290733 18.0
62.092214589 18.0
62.097138445 20.0
62.102062301 15.0
62.106986157 17.0
62.111910013 16.0
62.116833869 17.0
62.121757725 15.0
62.126681581 17.0
62.131605437 19.0
62.136529293 19.0
62.141453149 15.0
62.146377005 18.0
62.151300861 9.0
62.156224717 12.0
62.161148573 20.0
62.166072429 19.0
62.170996285 16.0
62.175920141 14.0
62.180843997 11.0
62.185767853 15.0
62.190691709 16.0
62.195615565 11.0
62.200539421 12.0
62.205463277 17.0
62.210387133 16.0
62.215310989 15.0
62.220234845 20.0
62.225158702 10.0
62.230082558 10.0
62.235006414 17.0
62.239930270 19.0
62.244854126 16.0
62.249777982 22.0
62.254701838 18.0
62.259625694 14.0
62.264549550 10.0
62.269473406 18.0
62.274397262 14.0
62.279321118 13.0
62.284244974 13.0
62.289168830 18.0
62.294092686 18.0
62.299016542 14.0
62.303940398 24.0
62.308864254 17.0
62.313788110 13.0
62.318711966 16.0
62.323635822 21.0
62.328559678 11.0
62.333483534 20.0
62.338407390 18.0
62.343331246 17.0
62.348255102 19.0
62.353178958 18.0
62.358102814 14.0
62.363026670 23.0
62.367950526 12.0
62.372874382 13.0
62.377798238 19.0
62.382722094 17.0
62.387645950 21.0
62.392569806 19.0
62.397493662 31.0
62.402417518 15.0
62.407341374 18.0
62.412265230 16.0
62.417189086 17.0
62.422112942 16.0
62.427036798 19.0
62.431960654 27.0
62.436884510 19.0
62.441808366 14.0
62.446732222 17.0
62.451656078 11.0
62.456579934 19.0
62.461503790 12.0
62.466427646 27.0
62.471351502 18.0
62.476275358 16.0
62.481199214 24.0
62.486123070 12.0
62.491046926 22.0
62.495970782 10.0
62.500894638 10.0
62.505818494 11.0
62.510742350 17.0
62.515666206 13.0
62.520590062 14.0
62.525513918 11.0
62.530437774 13.0
62.535361630 17.0
62.540285486 20.0
62.545209342 16.0
62.550133198 25.0
62.555057054 11.0
62.559980910 21.0
62.564904766 21.0
62.569828622 18.0
62.574752478 15.0
62.579676334 21.0
62.584600190 15.0
62.589524046 18.0
62.594447903 15.0
62.599371759 22.0
62.604295615 20.0
62.609219471 26.0
62.614143327 33.0
62.619067183 17.0
62.623991039 16.0
62.628914895 28.0
62.633838751 20.0
62.638762607 19.0
62.643686463 20.0
62.648610319 15.0
62.653534175 23.0
62.658458031 18.0
62.663381887 20.0
62.668305743 15.0
62.673229599 19.0
62.678153455 15.0
62.683077311 22.0
62.688001167 25.0
62.692925023 28.0
62.697848879 19.0
62.702772735 24.0
62.707696591 21.0
62.712620447 19.0
62.717544303 23.0
62.722468159 20.0
62.727392015 21.0
62.732315871 20.0
62.737239727 15.0
62.742163583 18.0
62.747087439 16.0
62.752011295 21.0
62.756935151 18.0
62.761859007 30.0
62.766782863 25.0
62.771706719 30.0
62.776630575 24.0
62.781554431 15.0
62.786478287 16.0
62.791402143 23.0
62.796325999 20.0
62.801249855 23.0
62.806173711 22.0
62.811097567 21.0
62.816021423 26.0
62.820945279 20.0
62.825869135 22.0
62.830792991 26.0
62.835716847 28.0
62.840640703 21.0
62.845564559 16.0
62.850488415 27.0
62.855412271 20.0
62.860336127 17.0
62.865259983 28.0
62.870183839 31.0
62.875107695 27.0
62.880031551 18.0
62.884955407 31.0
62.889879263 36.0
62.894803119 27.0
62.899726975 17.0
62.904650831 22.0
62.909574687 25.0
62.914498543 19.0
62.919422399 24.0
62.924346255 29.0
62.929270111 20.0
62.934193967 28.0
62.939117823 17.0
62.944041679 26.0
62.948965535 21.0
62.953889391 18.0
62.958813247 24.0
62.963737104 21.0
62.968660960 23.0
62.973584816 18.0
62.978508672 21.0
62.983432528 30.0
62.988356384 27.0
62.993280240 17.0
62.998204096 39.0
63.003127952 28.0
63.008051808 25.0
63.012975664 16.0
63.017899520 23.0
63.022823376 24.0
63.027747232 31.0
63.032671088 25.0
63.037594944 31.0
63.042518800 26.0
63.047442656 25.0
63.052366512 29.0
63.057290368 25.0
63.062214224 21.0
63.067138080 19.0
63.072061936 22.0
63.076985792 20.0
63.081909648 17.0
63.086833504 26.0
63.091757360 24.0
63.096681216 24.0
63.101605072 37.0
63.106528928 21.0
63.111452784 21.0
63.116376640 32.0
63.121300496 26.0
63.126224352 35.0
63.131148208 26.0
63.136072064 24.0
63.140995920 17.0
63.145919776 19.0
63.150843632 22.0
63.155767488 26.0
63.160691344 29.0
63.165615200 27.0
63.170539056 28.0
63.175462912 35.0
63.180386768 25.0
63.185310624 20.0
63.190234480 27.0
63.195158336 25.0
63.200082192 26.0
63.205006048 24.0
63.209929904 24.0
63.214853760 25.0
63.219777616 26.0
63.224701472 31.0
63.229625328 22.0
63.234549184 37.0
63.239473040 26.0
63.244396896 24.0
63.249320752 30.0
63.254244608 19.0
63.259168464 26.0
63.264092320 29.0
63.269016176 27.0
63.273940032 32.0
63.278863888 19.0
63.283787744 34.0
63.288711600 21.0
63.293635456 35.0
63.298559312 30.0
63.303483168 29.0
63.308407024 28.0
63.313330880 44.0
63.318254736 17.0
63.323178592 32.0
63.328102448 39.0
63.333026304 42.0
63.337950161 29.0
63.342874017 31.0
63.347797873 39.0
63.352721729 26.0
63.357645585 32.0
63.362569441 31.0
63.367493297 38.0
63.372417153 36.0
63.377341009 28.0
63.382264865 26.0
63.387188721 30.0
63.392112577 30.0
63.397036433 37.0
63.401960289 43.0
63.406884145 34.0
63.411808001 23.0
63.416731857 34.0
63.421655713 37.0
63.426579569 26.0
63.431503425 40.0
63.436427281 37.0
63.441351137 42.0
63.446274993 31.0
63.451198849 44.0
63.456122705 38.0
63.461046561 33.0
63.465970417 38.0
63.470894273 40.0
63.475818129 33.0
63.480741985 33.0
63.485665841 36.0
63.490589697 34.0
63.495513553 41.0
63.500437409 38.0
63.505361265 32.0
63.510285121 38.0
63.515208977 25.0
63.520132833 33.0
63.525056689 35.0
63.529980545 33.0
63.534904401 37.0
63.539828257 33.0
63.544752113 34.0
63.549675969 38.0
63.554599825 33.0
63.559523681 43.0
63.564447537 41.0
63.569371393 29.0
63.574295249 42.0
63.579219105 50.0
63.584142961 47.0
63.589066817 32.0
63.593990673 48.0
63.598914529 37.0
63.603838385 31.0
63.608762241 43.0
63.613686097 44.0
63.618609953 42.0
63.623533809 36.0
63.628457665 37.0
63.633381521 43.0
63.638305377 39.0
63.643229233 42.0
63.648153089 43.0
63.653076945 53.0
63.658000801 51.0
63.662924657 42.0
63.667848513 38.0
63.672772369 51.0
63.677696225 63.0
63.682620081 36.0
63.687543937 36.0
63.692467793 60.0
63.697391649 56.0
63.702315505 48.0
63.707239362 35.0
63.712163218 36.0
63.717087074 42.0
63.722010930 44.0
63.726934786 53.0
63.731858642 41.0
63.736782498 56.0
63.741706354 52.0
63.746630210 59.0
63.751554066 52.0
63.756477922 45.0
63.761401778 56.0
63.766325634 59.0
63.771249490 52.0
63.776173346 41.0
63.781097202 57.0
63.786021058 61.0
63.790944914 52.0
63.795868770 43.0
63.800792626 56.0
63.805716482 50.0
63.810640338 59.0
63.815564194 63.0
63.820488050 52.0
63.825411906 41.0
63.830335762 51.0
63.835259618 69.0
63.840183474 51.0
63.845107330 60.0
63.850031186 56.0
63.854955042 55.0
63.859878898 44.0
63.864802754 65.0
63.869726610 57.0
63.874650466 48.0
63.879574322 56.0
63.884498178 50.0
63.889422034 50.0
63.894345890 67.0
63.899269746 69.0
63.904193602 58.0
63.909117458 58.0
63.914041314 71.0
63.918965170 67.0
63.923889026 64.0
63.928812882 74.0
63.933736738 59.0
63.938660594 75.0
63.943584450 66.0
63.948508306 65.0
63.953432162 62.0
63.958356018 62.0
63.963279874 67.0
63.968203730 52.0
63.973127586 57.0
63.978051442 74.0
63.982975298 72.0
63.987899154 68.0
63.992823010 69.0
63.997746866 58.0
64.002670722 77.0
64.007594578 62.0
64.012518434 76.0
64.017442290 81.0
64.022366146 69.0
64.027290002 66.0
64.032213858 94.0
64.037137714 86.0
64.042061570 82.0
64.046985426 80.0
64.051909282 75.0
64.056833138 90.0
64.061756994 72.0
64.066680850 82.0
64.071604706 79.0
64.076528563 96.0
64.081452419 81.0
64.086376275 83.0
64.091300131 87.0
64.096223987 75.0
64.101147843 86.0
64.106071699 100.0
64.110995555 95.0
64.115919411 93.0
64.120843267 91.0
64.125767123 101.0
64.130690979 90.0
64.135614835 97.0
64.140538691 95.0
64.145462547 94.0
64.150386403 75.0
64.155310259 92.0
64.160234115 98.0
64.165157971 100.0
64.170081827 99.0
64.175005683 97.0
64.179929539 88.0
64.184853395 102.0
64.189777251 97.0
64.194701107 94.0
64.199624963 106.0
64.204548819 113.0
64.209472675 118.0
64.214396531 118.0
64.219320387 120.0
64.224244243 129.0
64.229168099 135.0
64.234091955 135.0
64.239015811 109.0
64.243939667 131.0
64.248863523 137.0
64.253787379 126.0
64.258711235 130.0
64.263635091 116.0
64.268558947 142.0
64.273482803 152.0
64.278406659 141.0
64.283330515 124.0
64.288254371 120.0
64.293178227 125.0
64.298102083 151.0
64.303025939 151.0
64.307949795 173.0
64.312873651 151.0
64.317797507 158.0
64.322721363 171.0
64.327645219 138.0
64.332569075 173.0
64.337492931 152.0
64.342416787 169.0
64.347340643 176.0
64.352264499 169.0
64.357188355 188.0
64.362112211 177.0
64.367036067 187.0
64.371959923 177.0
64.376883779 203.0
64.381807635 181.0
64.386731491 165.0
64.391655347 169.0
64.396579203 203.0
64.401503059 194.0
64.406426915 209.0
64.411350771 192.0
64.416274627 195.0
64.421198483 225.0
64.426122339 241.0
64.431046195 214.0
64.435970051 191.0
64.440893907 231.0
64.445817764 261.0
64.450741620 237.0
64.455665476 219.0
64.460589332 256.0
64.465513188 278.0
64.470437044 244.0
64.475360900 265.0
64.480284756 274.0
64.485208612 289.0
64.490132468 272.0
64.495056324 282.0
64.499980180 264.0
64.504904036 315.0
64.509827892 333.0
64.514751748 311.0
64.519675604 337.0
64.524599460 319.0
64.529523316 336.0
64.534447172 346.0
64.539371028 372.0
64.544294884 354.0
64.549218740 379.0
64.554142596 380.0
64.559066452 370.0
64.563990308 381.0
64.568914164 394.0
64.573838020 383.0
64.578761876 396.0
64.583685732 415.0
64.588609588 457.0
64.593533444 461.0
64.598457300 437.0
64.603381156 462.0
64.608305012 493.0
64.613228868 484.0
64.618152724 533.0
64.623076580 493.0
64.628000436 536.0
64.632924292 565.0
64.637848148 561.0
64.642772004 540.0
64.647695860 549.0
64.652619716 570.0
64.657543572 562.0
64.662467428 591.0
64.667391284 494.0
64.672315140 582.0
64.677238996 579.0
64.682162852 552.0
64.687086708 577.0
64.692010564 621.0
64.696934420 599.0
64.701858276 577.0
64.706782132 620.0
64.711705988 564.0
64.716629844 583.0
64.721553700 593.0
64.726477556 612.0
64.731401412 532.0
64.736325268 597.0
64.741249124 556.0
64.746172980 591.0
64.751096836 530.0
64.756020692 504.0
64.760944548 568.0
64.765868404 525.0
64.770792260 518.0
64.775716116 552.0
64.780639972 528.0
64.785563828 533.0
64.790487684 516.0
64.795411540 537.0
64.800335396 553.0
64.805259252 494.0
64.810183108 560.0
64.815106965 496.0
64.820030821 489.0
64.824954677 504.0
64.829878533 474.0
64.834802389 456.0
64.839726245 455.0
64.844650101 453.0
64.849573957 472.0
64.854497813 438.0
64.859421669 473.0
64.864345525 446.0
64.869269381 422.0
64.874193237 487.0
64.879117093 401.0
64.884040949 414.0
64.888964805 453.0
64.893888661 373.0
64.898812517 380.0
64.903736373 413.0
64.908660229 366.0
64.913584085 412.0
64.918507941 383.0
64.923431797 360.0
64.928355653 359.0
64.933279509 347.0
64.938203365 339.0
64.943127221 353.0
64.948051077 334.0
64.952974933 333.0
64.957898789 313.0
64.962822645 304.0
64.967746501 287.0
64.972670357 325.0
64.977594213 275.0
64.982518069 233.0
64.987441925 290.0
64.992365781 261.0
64.997289637 243.0
65.002213493 237.0
65.007137349 255.0
65.012061205 225.0
65.016985061 220.0
65.021908917 217.0
65.026832773 226.0
65.031756629 210.0
65.036680485 197.0
65.041604341 185.0
65.046528197 179.0
65.051452053 151.0
65.056375909 184.0
65.061299765 163.0
65.066223621 160.0
65.071147477 155.0
65.076071333 149.0
65.080995189 162.0
65.085919045 117.0
65.090842901 144.0
65.095766757 152.0
65.100690613 127.0
65.105614469 174.0
65.110538325 133.0
65.115462181 119.0
65.120386037 114.0
65.125309893 136.0
65.130233749 142.0
65.135157605 110.0
65.140081461 113.0
65.145005317 119.0
65.149929173 111.0
65.154853029 108.0
65.159776885 84.0
65.164700741 99.0
65.169624597 106.0
65.174548453 93.0
65.179472309 111.0
65.184396165 111.0
65.189320022 99.0
65.194243878 87.0
65.199167734 74.0
65.204091590 79.0
65.209015446 101.0
65.213939302 98.0
65.218863158 85.0
65.223787014 94.0
65.228710870 83.0
65.233634726 82.0
65.238558582 89.0
65.243482438 84.0
65.248406294 94.0
65.253330150 87.0
65.258254006 73.0
65.263177862 89.0
65.268101718 79.0
65.273025574 74.0
65.277949430 68.0
65.282873286 70.0
65.287797142 83.0
65.292720998 87.0
65.297644854 72.0
65.302568710 79.0
65.307492566 81.0
65.312416422 74.0
65.317340278 60.0
65.322264134 61.0
65.327187990 78.0
65.332111846 76.0
65.337035702 63.0
65.341959558 62.0
65.346883414 65.0
65.351807270 66.0
65.356731126 68.0
65.361654982 60.0
65.366578838 71.0
65.371502694 61.0
65.376426550 54.0
65.381350406 75.0
65.386274262 58.0
65.391198118 53.0
65.396121974 48.0
65.401045830 64.0
65.405969686 57.0
65.410893542 47.0
65.415817398 63.0
65.420741254 54.0
65.425665110 47.0
65.430588966 64.0
65.435512822 50.0
65.440436678 70.0
65.445360534 69.0
65.450284390 57.0
65.455208246 63.0
65.460132102 62.0
65.465055958 56.0
65.469979814 63.0
65.474903670 58.0
65.479827526 69.0
65.484751382 54.0
65.489675238 51.0
65.494599094 59.0
65.499522950 46.0
65.504446806 57.0
65.509370662 45.0
65.514294518 51.0
65.519218374 60.0
65.524142230 50.0
65.529066086 58.0
65.533989942 54.0
65.538913798 46.0
65.543837654 46.0
65.548761510 50.0
65.553685366 55.0
65.558609223 48.0
65.563533079 48.0
65.568456935 62.0
65.573380791 47.0
65.578304647 53.0
65.583228503 41.0
65.588152359 52.0
65.593076215 54.0
65.598000071 43.0
65.602923927 49.0
65.607847783 51.0
65.612771639 55.0
65.617695495 52.0
65.622619351 54.0
65.627543207 57.0
65.632467063 41.0
65.637390919 46.0
65.642314775 45.0
65.647238631 49.0
65.652162487 52.0
65.657086343 47.0
65.662010199 41.0
65.666934055 52.0
65.671857911 56.0
65.676781767 48.0
65.681705623 32.0
65.686629479 47.0
65.691553335 34.0
65.696477191 47.0
65.701401047 42.0
65.706324903 51.0
65.711248759 56.0
65.716172615 50.0
65.721096471 54.0
65.726020327 34.0
65.730944183 44.0
65.735868039 46.0
65.740791895 45.0
65.745715751 47.0
65.750639607 46.0
65.755563463 46.0
65.760487319 48.0
65.765411175 42.0
65.770335031 46.0
65.775258887 47.0
65.780182743 40.0
65.785106599 56.0
65.790030455 60.0
65.794954311 44.0
65.799878167 46.0
65.804802023 41.0
65.809725879 42.0
65.814649735 58.0
65.819573591 59.0
65.824497447 48.0
65.829421303 40.0
65.834345159 55.0
65.839269015 45.0
65.844192871 54.0
65.849116727 45.0
65.854040583 63.0
65.858964439 45.0
65.863888295 49.0
65.868812151 41.0
65.873736007 44.0
65.878659863 46.0
65.883583719 49.0
65.888507575 56.0
65.893431431 65.0
65.898355287 59.0
65.903279143 53.0
65.908202999 52.0
65.913126855 39.0
65.918050711 57.0
65.922974567 46.0
65.927898424 45.0
65.932822280 49.0
65.937746136 54.0
65.942669992 41.0
65.947593848 54.0
65.952517704 55.0
65.957441560 52.0
65.962365416 62.0
65.967289272 46.0
65.972213128 44.0
65.977136984 42.0
65.982060840 56.0
65.986984696 54.0
65.991908552 67.0
65.996832408 57.0
66.001756264 57.0
66.006680120 40.0
66.011603976 53.0
66.016527832 62.0
66.021451688 51.0
66.026375544 53.0
66.031299400 56.0
66.036223256 55.0
66.041147112 48.0
66.046070968 57.0
66.050994824 44.0
66.055918680 47.0
66.060842536 59.0
66.065766392 57.0
66.070690248 55.0
66.075614104 60.0
66.080537960 58.0
66.085461816 75.0
66.090385672 66.0
66.095309528 58.0
66.100233384 53.0
66.105157240 58.0
66.110081096 57.0
66.115004952 56.0
66.119928808 58.0
66.124852664 63.0
66.129776520 57.0
66.134700376 60.0
66.139624232 55.0
66.144548088 48.0
66.149471944 61.0
66.154395800 61.0
66.159319656 59.0
66.164243512 56.0
66.169167368 68.0
66.174091224 62.0
66.179015080 61.0
66.183938936 68.0
66.188862792 74.0
66.193786648 56.0
66.198710504 56.0
66.203634360 62.0
66.208558216 56.0
66.213482072 60.0
66.218405928 55.0
66.223329784 44.0
66.228253640 68.0
66.233177496 44.0
66.238101352 60.0
66.243025208 59.0
66.247949064 63.0
66.252872920 61.0
66.257796776 67.0
66.262720632 76.0
66.267644488 65.0
66.272568344 64.0
66.277492200 57.0
66.282416056 75.0
66.287339912 61.0
66.292263768 74.0
66.297187625 80.0
66.302111481 69.0
66.307035337 73.0
66.311959193 61.0
66.316883049 66.0
66.321806905 73.0
66.326730761 74.0
66.331654617 58.0
66.336578473 75.0
66.341502329 86.0
66.346426185 75.0
66.351350041 66.0
66.356273897 77.0
66.361197753 81.0
66.366121609 74.0
66.371045465 62.0
66.375969321 68.0
66.380893177 79.0
66.385817033 70.0
66.390740889 64.0
66.395664745 67.0
66.400588601 79.0
66.405512457 79.0
66.410436313 68.0
66.415360169 84.0
66.420284025 62.0
66.425207881 80.0
66.430131737 75.0
66.435055593 84.0
66.439979449 68.0
66.444903305 83.0
66.449827161 81.0
66.454751017 76.0
66.459674873 79.0
66.464598729 77.0
66.469522585 72.0
66.474446441 95.0
66.479370297 79.0
66.484294153 69.0
66.489218009 68.0
66.494141865 71.0
66.499065721 92.0
66.503989577 93.0
66.508913433 91.0
66.513837289 91.0
66.518761145 70.0
66.523685001 88.0
66.528608857 90.0
66.533532713 82.0
66.538456569 80.0
66.543380425 83.0
66.548304281 86.0
66.553228137 90.0
66.558151993 89.0
66.563075849 78.0
66.567999705 88.0
66.572923561 91.0
66.577847417 106.0
66.582771273 91.0
66.587695129 72.0
66.592618985 88.0
66.597542841 84.0
66.602466697 97.0
66.607390553 89.0
66.612314409 100.0
66.617238265 101.0
66.622162121 89.0
66.627085977 109.0
66.632009833 104.0
66.636933689 96.0
66.641857545 109.0
66.646781401 86.0
66.651705257 104.0
66.656629113 111.0
66.661552969 92.0
66.666476826 95.0
66.671400682 88.0
66.676324538 117.0
66.681248394 97.0
66.686172250 101.0
66.691096106 100.0
66.696019962 108.0
66.700943818 110.0
66.705867674 108.0
66.710791530 116.0
66.715715386 98.0
66.720639242 107.0
66.725563098 107.0
66.730486954 101.0
66.735410810 108.0
66.740334666 118.0
66.745258522 97.0
66.750182378 110.0
66.755106234 109.0
66.760030090 107.0
66.764953946 101.0
66.769877802 111.0
66.774801658 109.0
66.779725514 110.0
66.784649370 135.0
66.789573226 87.0
66.794497082 117.0
66.799420938 106.0
66.804344794 114.0
66.809268650 112.0
66.814192506 108.0
66.819116362 102.0
66.824040218 101.0
66.828964074 119.0
66.833887930 107.0
66.838811786 96.0
66.843735642 113.0
66.848659498 111.0
66.853583354 121.0
66.858507210 101.0
66.863431066 130.0
66.868354922 135.0
66.873278778 113.0
66.878202634 122.0
66.883126490 123.0
66.888050346 123.0
66.892974202 106.0
66.897898058 132.0
66.902821914 108.0
66.907745770 125.0
66.912669626 119.0
66.917593482 115.0
66.922517338 138.0
66.927441194 141.0
66.932365050 136.0
66.937288906 122.0
66.942212762 156.0
66.947136618 135.0
66.952060474 126.0
66.956984330 139.0
66.961908186 129.0
66.966832042 127.0
66.971755898 136.0
66.976679754 127.0
66.981603610 141.0
66.986527466 126.0
66.991451322 144.0
66.996375178 131.0
67.001299034 147.0
67.006222890 158.0
67.011146746 151.0
67.016070602 145.0
67.020994458 145.0
67.025918314 143.0
67.030842170 161.0
67.035766026 139.0
67.040689883 120.0
67.045613739 140.0
67.050537595 143.0
67.055461451 150.0
67.060385307 128.0
67.065309163 131.0
67.070233019 161.0
67.075156875 151.0
67.080080731 143.0
67.085004587 146.0
67.089928443 143.0
67.094852299 145.0
67.099776155 136.0
67.104700011 151.0
67.109623867 154.0
67.114547723 163.0
67.119471579 151.0
67.124395435 173.0
67.129319291 162.0
67.134243147 169.0
67.139167003 148.0
67.144090859 143.0
67.149014715 161.0
67.153938571 150.0
67.158862427 169.0
67.163786283 161.0
67.168710139 178.0
67.173633995 149.0
67.178557851 161.0
67.183481707 144.0
67.188405563 165.0
67.193329419 185.0
67.198253275 187.0
67.203177131 191.0
67.208100987 170.0
67.213024843 168.0
67.217948699 186.0
67.222872555 164.0
67.227796411 186.0
67.232720267 183.0
67.237644123 174.0
67.242567979 204.0
67.247491835 175.0
67.252415691 201.0
67.257339547 187.0
67.262263403 181.0
67.267187259 179.0
67.272111115 192.0
67.277034971 212.0
67.281958827 196.0
67.286882683 189.0
67.291806539 193.0
67.296730395 201.0
67.301654251 198.0
67.306578107 200.0
67.311501963 195.0
67.316425819 192.0
67.321349675 220.0
67.326273531 258.0
67.331197387 198.0
67.336121243 179.0
67.341045099 195.0
67.345968955 190.0
67.350892811 213.0
67.355816667 177.0
67.360740523 218.0
67.365664379 279.0
67.370588235 200.0
67.375512091 218.0
67.380435947 202.0
67.385359803 272.0
67.390283659 195.0
67.395207515 281.0
67.400131371 280.0
67.405055227 290.0
67.409979084 274.0
67.414902940 286.0
67.419826796 276.0
67.424750652 218.0
67.429674508 272.0
67.434598364 273.0
67.439522220 261.0
67.444446076 288.0
67.449369932 328.0
67.454293788 266.0
67.459217644 266.0
67.464141500 265.0
67.469065356 302.0
67.473989212 308.0
67.478913068 339.0
67.483836924 330.0
67.488760780 288.0
67.493684636 321.0
67.498608492 323.0
67.503532348 326.0
67.508456204 313.0
67.513380060 318.0
67.518303916 320.0
67.523227772 322.0
67.528151628 356.0
67.533075484 336.0
67.537999340 345.0
67.542923196 353.0
67.547847052 345.0
67.552770908 350.0
67.557694764 327.0
67.562618620 376.0
67.567542476 386.0
67.572466332 366.0
67.577390188 403.0
67.582314044 393.0
67.587237900 398.0
67.592161756 405.0
67.597085612 419.0
67.602009468 448.0
67.606933324 419.0
67.611857180 443.0
67.616781036 401.0
67.621704892 419.0
67.626628748 444.0
67.631552604 472.0
67.636476460 470.0
67.641400316 509.0
67.646324172 529.0
67.651248028 489.0
67.656171884 575.0
67.661095740 545.0
67.666019596 574.0
67.670943452 581.0
67.675867308 581.0
67.680791164 681.0
67.685715020 635.0
67.690638876 698.0
67.695562732 762.0
67.700486588 768.0
67.705410444 805.0
67.710334300 884.0
67.715258156 884.0
67.720182012 948.0
67.725105868 964.0
67.730029724 1060.0
67.734953580 1109.0
67.739877436 1111.0
67.744801292 1171.0
67.749725148 1177.0
67.754649004 1245.0
67.759572860 1242.0
67.764496716 1321.0
67.769420572 1401.0
67.774344428 1408.0
67.779268285 1397.0
67.784192141 1445.0
67.789115997 1398.0
67.794039853 1504.0
67.798963709 1422.0
67.803887565 1489.0
67.808811421 1473.0
67.813735277 1453.0
67.818659133 1407.0
67.823582989 1439.0
67.828506845 1422.0
67.833430701 1431.0
67.838354557 1435.0
67.843278413 1350.0
67.848202269 1354.0
67.853126125 1346.0
67.858049981 1421.0
67.862973837 1367.0
67.867897693 1326.0
67.872821549 1322.0
67.877745405 1343.0
67.882669261 1481.0
67.887593117 1491.0
67.892516973 1499.0
67.897440829 1581.0
67.902364685 1561.0
67.907288541 1586.0
67.912212397 1552.0
67.917136253 1667.0
67.922060109 1772.0
67.926983965 1813.0
67.931907821 1958.0
67.936831677 2061.0
67.941755533 2140.0
67.946679389 2157.0
67.951603245 2363.0
67.956527101 2437.0
67.961450957 2545.0
67.966374813 2838.0
67.971298669 3086.0
67.976222525 3154.0
67.981146381 3365.0
67.986070237 3598.0
67.990994093 3934.0
67.995917949 4180.0
68.000841805 4472.0
68.005765661 5078.0
68.010689517 5511.0
68.015613373 6112.0
68.020537229 6714.0
68.025461085 7442.0
68.030384941 8650.0
68.035308797 9969.0
68.040232653 11223.0
68.045156509 13143.0
68.050080365 15485.0
68.055004221 19166.0
68.059928077 23926.0
68.064851933 31413.0
68.069775789 42559.0
68.074699645 58396.0
68.079623501 78601.0
68.084547357 100178.0
68.089471213 119696.0
68.094395069 132184.0
68.099318925 141986.0
68.104242781 147388.0
68.109166637 151166.0
68.114090493 151001.0
68.119014349 146464.0
68.123938205 135796.0
68.128862061 120294.0
68.133785917 99227.0
68.138709773 77901.0
68.143633629 60337.0
68.148557486 47068.0
68.153481342 37123.0
68.158405198 29601.0
68.163329054 24117.0
68.168252910 19965.0
68.173176766 16533.0
68.178100622 13917.0
68.183024478 12110.0
68.187948334 10807.0
68.192872190 9692.0
68.197796046 8797.0
68.202719902 8241.0
68.207643758 8081.0
68.212567614 7788.0
68.217491470 7823.0
68.222415326 7919.0
68.227339182 8379.0
68.232263038 8867.0
68.237186894 9781.0
68.242110750 10938.0
68.247034606 12563.0
68.251958462 15354.0
68.256882318 18911.0
68.261806174 24094.0
68.266730030 31523.0
68.271653886 39807.0
68.276577742 49471.0
68.281501598 57890.0
68.286425454 64801.0
68.291349310 70537.0
68.296273166 74332.0
68.301197022 76125.0
68.306120878 75495.0
68.311044734 73952.0
68.315968590 69167.0
68.320892446 62401.0
68.325816302 53613.0
68.330740158 44532.0
68.335664014 35766.0
68.340587870 28485.0
68.345511726 22614.0
68.350435582 17873.0
68.355359438 14350.0
68.360283294 11788.0
68.365207150 9774.0
68.370131006 8362.0
68.375054862 7007.0
68.379978718 6043.0
68.384902574 5415.0
68.389826430 4717.0
68.394750286 4238.0
68.399674142 3877.0
68.404597998 3474.0
68.409521854 3313.0
68.414445710 3141.0
68.419369566 2820.0
68.424293422 2725.0
68.429217278 2536.0
68.434141134 2416.0
68.439064990 2308.0
68.443988846 2145.0
68.448912702 1997.0
68.453836558 1954.0
68.458760414 1892.0
68.463684270 1874.0
68.468608126 1740.0
68.473531982 1710.0
68.478455838 1539.0
68.483379694 1491.0
68.488303550 1447.0
68.493227406 1489.0
68.498151262 1397.0
68.503075118 1343.0
68.507998974 1336.0
68.512922830 1255.0
68.517846687 1228.0
68.522770543 1216.0
68.527694399 1137.0
68.532618255 1174.0
68.537542111 1146.0
68.542465967 1149.0
68.547389823 1067.0
68.552313679 1029.0
68.557237535 1026.0
68.562161391 992.0
68.567085247 964.0
68.572009103 918.0
68.576932959 928.0
68.581856815 932.0
68.586780671 903.0
68.591704527 831.0
68.596628383 803.0
68.601552239 805.0
68.606476095 766.0
68.611399951 791.0
68.616323807 748.0
68.621247663 707.0
68.626171519 781.0
68.631095375 736.0
68.636019231 727.0
68.640943087 699.0
68.645866943 678.0
68.650790799 684.0
68.655714655 705.0
68.660638511 663.0
68.665562367 643.0
68.670486223 622.0
68.675410079 636.0
68.680333935 640.0
68.685257791 555.0
68.690181647 635.0
68.695105503 649.0
68.700029359 604.0
68.704953215 591.0
68.709877071 579.0
68.714800927 584.0
68.719724783 602.0
68.724648639 506.0
68.729572495 533.0
68.734496351 509.0
68.739420207 498.0
68.744344063 505.0
68.749267919 517.0
68.754191775 471.0
68.759115631 477.0
68.764039487 454.0
68.768963343 473.0
68.773887199 470.0
68.778811055 439.0
68.783734911 470.0
68.788658767 453.0
68.793582623 435.0
68.798506479 469.0
68.803430335 450.0
68.808354191 423.0
68.813278047 414.0
68.818201903 384.0
68.823125759 437.0
68.828049615 395.0
68.832973471 377.0
68.837897327 384.0
68.842821183 391.0
68.847745039 376.0
68.852668895 367.0
68.857592751 385.0
68.862516607 352.0
68.867440463 315.0
68.872364319 401.0
68.877288175 366.0
68.882212031 332.0
68.887135887 323.0
68.892059744 314.0
68.896983600 315.0
68.901907456 340.0
68.906831312 321.0
68.911755168 325.0
68.916679024 325.0
68.921602880 340.0
68.926526736 322.0
68.931450592 334.0
68.936374448 312.0
68.941298304 341.0
68.946222160 297.0
68.951146016 315.0
68.956069872 287.0
68.960993728 303.0
68.965917584 313.0
68.970841440 291.0
68.975765296 286.0
68.980689152 277.0
68.985613008 310.0
68.990536864 282.0
68.995460720 300.0
69.000384576 288.0
69.005308432 286.0
69.010232288 297.0
69.015156144 292.0
69.020080000 297.0
69.025003856 260.0
69.029927712 288.0
69.034851568 208.0
69.039775424 302.0
69.044699280 267.0
69.049623136 266.0
69.054546992 212.0
69.059470848 285.0
69.064394704 197.0
69.069318560 193.0
69.074242416 205.0
69.079166272 194.0
69.084090128 285.0
69.089013984 206.0
69.093937840 194.0
69.098861696 204.0
69.103785552 201.0
69.108709408 256.0
69.113633264 203.0
69.118557120 209.0
69.123480976 196.0
69.128404832 209.0
69.133328688 195.0
69.138252544 257.0
69.143176400 199.0
69.148100256 211.0
69.153024112 207.0
69.157947968 220.0
69.162871824 200.0
69.167795680 202.0
69.172719536 194.0
69.177643392 204.0
69.182567248 179.0
69.187491104 173.0
69.192414960 170.0
69.197338816 187.0
69.202262672 184.0
69.207186528 201.0
69.212110384 161.0
69.217034240 180.0
69.221958096 195.0
69.226881952 157.0
69.231805808 174.0
69.236729664 160.0
69.241653520 169.0
69.246577376 159.0
69.251501232 150.0
69.256425088 177.0
69.261348945 148.0
69.266272801 170.0
69.271196657 146.0
69.276120513 165.0
69.281044369 154.0
69.285968225 188.0
69.290892081 136.0
69.295815937 143.0
69.300739793 158.0
69.305663649 160.0
69.310587505 153.0
69.315511361 159.0
69.320435217 148.0
69.325359073 149.0
69.330282929 131.0
69.335206785 141.0
69.340130641 139.0
69.345054497 146.0
69.349978353 145.0
69.354902209 121.0
69.359826065 158.0
69.364749921 133.0
69.369673777 146.0
69.374597633 124.0
69.379521489 151.0
69.384445345 133.0
69.389369201 126.0
69.394293057 141.0
69.399216913 126.0
69.404140769 130.0
69.409064625 143.0
69.413988481 130.0
69.418912337 143.0
69.423836193 132.0
69.428760049 139.0
69.433683905 114.0
69.438607761 121.0
69.443531617 117.0
69.448455473 114.0
69.453379329 142.0
69.458303185 139.0
69.463227041 123.0
69.468150897 139.0
69.473074753 133.0
69.477998609 116.0
69.482922465 110.0
69.487846321 134.0
69.492770177 104.0
69.497694033 108.0
69.502617889 124.0
69.507541745 114.0
69.512465601 114.0
69.517389457 106.0
69.522313313 102.0
69.527237169 112.0
69.532161025 107.0
69.537084881 104.0
69.542008737 100.0
69.546932593 118.0
69.551856449 114.0
69.556780305 102.0
69.561704161 128.0
69.566628017 95.0
69.571551873 112.0
69.576475729 102.0
69.581399585 90.0
69.586323441 103.0
69.591247297 91.0
69.596171153 93.0
69.601095009 98.0
69.606018865 105.0
69.610942721 91.0
69.615866577 100.0
69.620790433 107.0
69.625714289 107.0
69.630638146 81.0
69.635562002 97.0
69.640485858 103.0
69.645409714 98.0
69.650333570 111.0
69.655257426 79.0
69.660181282 89.0
69.665105138 98.0
69.670028994 78.0
69.674952850 99.0
69.679876706 102.0
69.684800562 97.0
69.689724418 68.0
69.694648274 94.0
69.699572130 104.0
69.704495986 86.0
69.709419842 85.0
69.714343698 91.0
69.719267554 79.0
69.724191410 76.0
69.729115266 82.0
69.734039122 72.0
69.738962978 83.0
69.743886834 80.0
69.748810690 93.0
69.753734546 95.0
69.758658402 83.0
69.763582258 87.0
69.768506114 71.0
69.773429970 83.0
69.778353826 78.0
69.783277682 82.0
69.788201538 79.0
69.793125394 83.0
69.798049250 80.0
69.802973106 74.0
69.807896962 66.0
69.812820818 67.0
69.817744674 87.0
69.822668530 69.0
69.827592386 84.0
69.832516242 68.0
69.837440098 67.0
69.842363954 69.0
69.847287810 59.0
69.852211666 74.0
69.857135522 70.0
69.862059378 70.0
69.866983234 66.0
69.871907090 53.0
69.876830946 77.0
69.881754802 72.0
69.886678658 56.0
69.891602514 56.0
69.896526370 61.0
69.901450226 65.0
69.906374082 66.0
69.911297938 69.0
69.916221794 61.0
69.921145650 70.0
69.926069506 64.0
69.930993362 61.0
69.935917218 69.0
69.940841074 76.0
69.945764930 66.0
69.950688786 70.0
69.955612642 67.0
69.960536498 49.0
69.965460354 47.0
69.970384210 66.0
69.975308066 66.0
69.980231922 68.0
69.985155778 63.0
69.990079634 54.0
69.995003490 47.0
69.999927347 63.0
70.004851203 64.0
70.009775059 63.0
70.014698915 53.0
70.019622771 59.0
70.024546627 43.0
70.029470483 54.0
70.034394339 53.0
70.039318195 55.0
70.044242051 53.0
70.049165907 42.0
70.054089763 62.0
70.059013619 59.0
70.063937475 39.0
70.068861331 58.0
70.073785187 53.0
70.078709043 48.0
70.083632899 46.0
70.088556755 50.0
70.093480611 40.0
70.098404467 54.0
70.103328323 52.0
70.108252179 59.0
70.113176035 57.0
70.118099891 49.0
70.123023747 57.0
70.127947603 50.0
70.132871459 50.0
70.137795315 60.0
70.142719171 43.0
70.147643027 58.0
70.152566883 49.0
70.157490739 44.0
70.162414595 42.0
70.167338451 62.0
70.172262307 60.0
70.177186163 48.0
70.182110019 37.0
70.187033875 49.0
70.191957731 52.0
70.196881587 44.0
70.201805443 44.0
70.206729299 51.0
70.211653155 42.0
70.216577011 47.0
70.221500867 43.0
70.226424723 49.0
70.231348579 57.0
70.236272435 46.0
70.241196291 48.0
70.246120147 42.0
70.251044003 33.0
70.255967859 48.0
70.260891715 47.0
70.265815571 38.0
70.270739427 43.0
70.275663283 48.0
70.280587139 47.0
70.285510995 58.0
70.290434851 44.0
70.295358707 27.0
70.300282563 47.0
70.305206419 47.0
70.310130275 41.0
70.315054131 41.0
70.319977987 40.0
70.324901843 39.0
70.329825699 28.0
70.334749555 33.0
70.339673411 40.0
70.344597267 30.0
70.349521123 35.0
70.354444979 44.0
70.359368835 41.0
70.364292691 36.0
70.369216548 44.0
70.374140404 45.0
70.379064260 39.0
70.383988116 38.0
70.388911972 35.0
70.393835828 36.0
70.398759684 38.0
70.403683540 42.0
70.408607396 27.0
70.413531252 43.0
70.418455108 39.0
70.423378964 45.0
70.428302820 36.0
70.433226676 42.0
70.438150532 43.0
70.443074388 41.0
70.447998244 33.0
70.452922100 30.0
70.457845956 33.0
70.462769812 32.0
70.467693668 29.0
70.472617524 27.0
70.477541380 32.0
70.482465236 39.0
70.487389092 35.0
70.492312948 29.0
70.497236804 38.0
70.502160660 34.0
70.507084516 35.0
70.512008372 30.0
70.516932228 28.0
70.521856084 37.0
70.526779940 24.0
70.531703796 46.0
70.536627652 34.0
70.541551508 40.0
70.546475364 29.0
70.551399220 30.0
70.556323076 19.0
70.561246932 39.0
70.566170788 28.0
70.571094644 28.0
70.576018500 34.0
70.580942356 24.0
70.585866212 31.0
70.590790068 36.0
70.595713924 31.0
70.600637780 33.0
70.605561636 30.0
70.610485492 24.0
70.615409348 34.0
70.620333204 28.0
70.625257060 30.0
70.630180916 33.0
70.635104772 28.0
70.640028628 34.0
70.644952484 28.0
70.649876340 20.0
70.654800196 22.0
70.659724052 23.0
70.664647908 35.0
70.669571764 35.0
70.674495620 35.0
70.679419476 35.0
70.684343332 26.0
70.689267188 28.0
70.694191044 26.0
70.699114900 40.0
70.704038756 30.0
70.708962612 31.0
70.713886468 27.0
70.718810324 22.0
70.723734180 37.0
70.728658036 24.0
70.733581892 21.0
70.738505748 24.0
70.743429605 26.0
70.748353461 35.0
70.753277317 26.0
70.758201173 35.0
70.763125029 20.0
70.768048885 32.0
70.772972741 23.0
70.777896597 19.0
70.782820453 27.0
70.787744309 18.0
70.792668165 41.0
70.797592021 24.0
70.802515877 32.0
70.807439733 30.0
70.812363589 33.0
70.817287445 23.0
70.822211301 26.0
70.827135157 25.0
70.832059013 30.0
70.836982869 29.0
70.841906725 25.0
70.846830581 18.0
70.851754437 18.0
70.856678293 31.0
70.861602149 33.0
70.866526005 21.0
70.871449861 25.0
70.876373717 33.0
70.881297573 16.0
70.886221429 21.0
70.891145285 28.0
70.896069141 39.0
70.900992997 26.0
70.905916853 23.0
70.910840709 26.0
70.915764565 20.0
70.920688421 27.0
70.925612277 26.0
70.930536133 17.0
70.935459989 21.0
70.940383845 27.0
70.945307701 30.0
70.950231557 29.0
70.955155413 27.0
70.960079269 23.0
70.965003125 20.0
70.969926981 35.0
70.974850837 21.0
70.979774693 22.0
70.984698549 25.0
70.989622405 26.0
70.994546261 31.0
70.999470117 22.0
71.004393973 28.0
71.009317829 22.0
71.014241685 34.0
71.019165541 30.0
71.024089397 27.0
71.029013253 33.0
71.033937109 18.0
71.038860965 23.0
71.043784821 17.0
71.048708677 24.0
71.053632533 27.0
71.058556389 19.0
71.063480245 30.0
71.068404101 26.0
71.073327957 31.0
71.078251813 21.0
71.083175669 24.0
71.088099525 21.0
71.093023381 26.0
71.097947237 22.0
71.102871093 21.0
71.107794949 37.0
71.112718806 23.0
71.117642662 10.0
71.122566518 21.0
71.127490374 26.0
71.132414230 18.0
71.137338086 19.0
71.142261942 17.0
71.147185798 22.0
71.152109654 17.0
71.157033510 36.0
71.161957366 39.0
71.166881222 21.0
71.171805078 18.0
71.176728934 27.0
71.181652790 24.0
71.186576646 27.0
71.191500502 25.0
71.196424358 25.0
71.201348214 20.0
71.206272070 26.0
71.211195926 29.0
71.216119782 21.0
71.221043638 24.0
71.225967494 29.0
71.230891350 24.0
71.235815206 19.0
71.240739062 20.0
71.245662918 27.0
71.250586774 23.0
71.255510630 27.0
71.260434486 10.0
71.265358342 26.0
71.270282198 18.0
71.275206054 22.0
71.280129910 26.0
71.285053766 19.0
71.289977622 16.0
71.294901478 22.0
71.299825334 16.0
71.304749190 26.0
71.309673046 22.0
71.314596902 23.0
71.319520758 19.0
71.324444614 12.0
71.329368470 21.0
71.334292326 28.0
71.339216182 12.0
71.344140038 19.0
71.349063894 32.0
71.353987750 19.0
71.358911606 19.0
71.363835462 17.0
71.368759318 14.0
71.373683174 18.0
71.378607030 26.0
71.383530886 26.0
71.388454742 15.0
71.393378598 29.0
71.398302454 16.0
71.403226310 20.0
71.408150166 22.0
71.413074022 16.0
71.417997878 29.0
71.422921734 16.0
71.427845590 20.0
71.432769446 16.0
71.437693302 30.0
71.442617158 19.0
71.447541014 21.0
71.452464870 19.0
71.457388726 29.0
71.462312582 12.0
71.467236438 18.0
71.472160294 21.0
71.477084150 27.0
71.482008007 19.0
71.486931863 22.0
71.491855719 25.0
71.496779575 21.0
71.501703431 24.0
71.506627287 17.0
71.511551143 12.0
71.516474999 20.0
71.521398855 14.0
71.526322711 13.0
71.531246567 21.0
71.536170423 22.0
71.541094279 15.0
71.546018135 22.0
71.550941991 21.0
71.555865847 18.0
71.560789703 20.0
71.565713559 23.0
71.570637415 28.0
71.575561271 25.0
71.580485127 15.0
71.585408983 20.0
71.590332839 23.0
71.595256695 13.0
71.600180551 20.0
71.605104407 26.0
71.610028263 21.0
71.614952119 22.0
71.619875975 18.0
71.624799831 27.0
71.629723687 13.0
71.634647543 16.0
71.639571399 18.0
71.644495255 22.0
71.649419111 14.0
71.654342967 14.0
71.659266823 23.0
71.664190679 19.0
71.669114535 21.0
71.674038391 13.0
71.678962247 22.0
71.683886103 19.0
71.688809959 20.0
71.693733815 25.0
71.698657671 22.0
71.703581527 22.0
71.708505383 12.0
71.713429239 13.0
71.718353095 27.0
71.723276951 30.0
71.728200807 9.0
71.733124663 22.0
71.738048519 17.0
71.742972375 18.0
71.747896231 13.0
71.752820087 19.0
71.757743943 14.0
71.762667799 19.0
71.767591655 19.0
71.772515511 31.0
71.777439367 28.0
71.782363223 15.0
71.787287079 23.0
71.792210935 27.0
71.797134791 11.0
71.802058647 25.0
71.806982503 10.0
71.811906359 24.0
71.816830215 25.0
71.821754071 18.0
71.826677927 21.0
71.831601783 23.0
71.836525639 10.0
71.841449495 17.0
71.846373351 14.0
71.851297208 21.0
71.856221064 17.0
71.861144920 20.0
71.866068776 13.0
71.870992632 15.0
71.875916488 12.0
71.880840344 18.0
71.885764200 26.0
71.890688056 19.0
71.895611912 12.0
71.900535768 20.0
71.905459624 18.0
71.910383480 18.0
71.915307336 15.0
71.920231192 15.0
71.925155048 19.0
71.930078904 10.0
71.935002760 16.0
71.939926616 15.0
71.944850472 18.0
71.949774328 19.0
71.954698184 16.0
71.959622040 19.0
71.964545896 11.0
71.969469752 22.0
71.974393608 18.0
71.979317464 15.0
71.984241320 21.0
71.989165176 26.0
71.994089032 14.0
71.999012888 14.0
72.003936744 9.0
72.008860600 16.0
72.013784456 12.0
72.018708312 11.0
72.023632168 12.0
72.028556024 14.0
72.033479880 13.0
72.038403736 21.0
72.043327592 20.0
72.048251448 10.0
72.053175304 15.0
72.058099160 14.0
72.063023016 19.0
72.067946872 18.0
72.072870728 19.0
72.077794584 14.0
72.082718440 16.0
72.087642296 13.0
72.092566152 17.0
72.097490008 17.0
72.102413864 15.0
72.107337720 20.0
72.112261576 19.0
72.117185432 21.0
72.122109288 17.0
72.127033144 14.0
72.131957000 15.0
72.136880856 21.0
72.141804712 18.0
72.146728568 12.0
72.151652424 17.0
72.156576280 12.0
72.161500136 12.0
72.166423992 14.0
72.171347848 18.0
72.176271704 17.0
72.181195560 14.0
72.186119416 21.0
72.191043272 20.0
72.195967128 19.0
72.200890984 17.0
72.205814840 11.0
72.210738696 16.0
72.215662552 19.0
72.220586409 19.0
72.225510265 9.0
72.230434121 11.0
72.235357977 19.0
72.240281833 21.0
72.245205689 20.0
72.250129545 7.0
72.255053401 19.0
72.259977257 16.0
72.264901113 18.0
72.269824969 17.0
72.274748825 9.0
72.279672681 19.0
72.284596537 14.0
72.289520393 9.0
72.294444249 26.0
72.299368105 11.0
72.304291961 13.0
72.309215817 14.0
72.314139673 17.0
72.319063529 15.0
72.323987385 11.0
72.328911241 25.0
72.333835097 17.0
72.338758953 14.0
72.343682809 19.0
72.348606665 16.0
72.353530521 16.0
72.358454377 17.0
72.363378233 23.0
72.368302089 13.0
72.373225945 15.0
72.378149801 16.0
72.383073657 21.0
72.387997513 20.0
72.392921369 15.0
72.397845225 12.0
72.402769081 17.0
72.407692937 12.0
72.412616793 18.0
72.417540649 9.0
72.422464505 14.0
72.427388361 14.0
72.432312217 14.0
72.437236073 8.0
72.442159929 19.0
72.447083785 17.0
72.452007641 14.0
72.456931497 18.0
72.461855353 22.0
72.466779209 13.0
72.471703065 10.0
72.476626921 19.0
72.481550777 17.0
72.486474633 13.0
72.491398489 13.0
72.496322345 12.0
72.501246201 11.0
72.506170057 8.0
72.511093913 15.0
72.516017769 14.0
72.520941625 18.0
72.525865481 21.0
72.530789337 13.0
72.535713193 12.0
72.540637049 18.0
72.545560905 18.0
72.550484761 10.0
72.555408617 8.0
72.560332473 15.0
72.565256329 9.0
72.570180185 27.0
72.575104041 13.0
72.580027897 18.0
72.584951753 11.0
72.589875609 11.0
72.594799466 18.0
72.599723322 11.0
72.604647178 10.0
72.609571034 23.0
72.614494890 14.0
72.619418746 15.0
72.624342602 10.0
72.629266458 15.0
72.634190314 21.0
72.639114170 13.0
72.644038026 13.0
72.648961882 15.0
72.653885738 15.0
72.658809594 20.0
72.663733450 14.0
72.668657306 11.0
72.673581162 18.0
72.678505018 16.0
72.683428874 13.0
72.688352730 19.0
72.693276586 11.0
72.698200442 11.0
72.703124298 17.0
72.708048154 11.0
72.712972010 14.0
72.717895866 12.0
72.722819722 14.0
72.727743578 20.0
72.732667434 13.0
72.737591290 19.0
72.742515146 9.0
72.747439002 17.0
72.752362858 13.0
72.757286714 12.0
72.762210570 11.0
72.767134426 11.0
72.772058282 12.0
72.776982138 17.0
72.781905994 14.0
72.786829850 16.0
72.791753706 12.0
72.796677562 11.0
72.801601418 14.0
72.806525274 19.0
72.811449130 13.0
72.816372986 16.0
72.821296842 9.0
72.826220698 11.0
72.831144554 13.0
72.836068410 12.0
72.840992266 14.0
72.845916122 10.0
72.850839978 18.0
72.855763834 19.0
72.860687690 6.0
72.865611546 15.0
72.870535402 14.0
72.875459258 26.0
72.880383114 11.0
72.885306970 12.0
72.890230826 11.0
72.895154682 14.0
72.900078538 13.0
72.905002394 19.0
72.909926250 13.0
72.914850106 9.0
72.919773962 18.0
72.924697818 18.0
72.929621674 15.0
72.934545530 14.0
72.939469386 13.0
72.944393242 8.0
72.949317098 13.0
72.954240954 13.0
72.959164810 20.0
72.964088667 10.0
72.969012523 17.0
72.973936379 17.0
72.978860235 16.0
72.983784091 13.0
72.988707947 17.0
72.993631803 13.0
72.998555659 12.0
73.003479515 11.0
73.008403371 11.0
73.013327227 21.0
73.018251083 7.0
73.023174939 19.0
73.028098795 12.0
73.033022651 11.0
73.037946507 21.0
73.042870363 14.0
73.047794219 12.0
73.052718075 23.0
73.057641931 13.0
73.062565787 20.0
73.067489643 16.0
73.072413499 20.0
73.077337355 14.0
73.082261211 29.0
73.087185067 12.0
73.092108923 17.0
73.097032779 14.0
73.101956635 16.0
73.106880491 12.0
73.111804347 13.0
73.116728203 13.0
73.121652059 21.0
73.126575915 21.0
73.131499771 10.0
73.136423627 10.0
73.141347483 11.0
73.146271339 12.0
73.151195195 13.0
73.156119051 14.0
73.161042907 11.0
73.165966763 13.0
73.170890619 13.0
73.175814475 12.0
73.180738331 11.0
73.185662187 11.0
73.190586043 16.0
73.195509899 8.0
73.200433755 10.0
73.205357611 8.0
73.210281467 12.0
73.215205323 9.0
73.220129179 9.0
73.225053035 14.0
73.229976891 19.0
73.234900747 12.0
73.239824603 17.0
73.244748459 15.0
73.249672315 7.0
73.254596171 11.0
73.259520027 14.0
73.264443883 15.0
73.269367739 13.0
73.274291595 15.0
73.279215451 14.0
73.284139307 17.0
73.289063163 18.0
73.293987019 19.0
73.298910875 16.0
73.303834731 12.0
73.308758587 9.0
73.313682443 14.0
73.318606299 12.0
73.323530155 17.0
73.328454011 8.0
73.333377868 13.0
73.338301724 19.0
73.343225580 18.0
73.348149436 10.0
73.353073292 12.0
73.357997148 15.0
73.362921004 8.0
73.367844860 9.0
73.372768716 9.0
73.377692572 6.0
73.382616428 16.0
73.387540284 16.0
73.392464140 9.0
73.397387996 7.0
73.402311852 13.0
73.407235708 12.0
73.412159564 19.0
73.417083420 16.0
73.422007276 17.0
73.426931132 13.0
73.431854988 9.0
73.436778844 10.0
73.441702700 12.0
73.446626556 14.0
73.451550412 12.0
73.456474268 15.0
73.461398124 10.0
73.466321980 10.0
73.471245836 14.0
73.476169692 12.0
73.481093548 18.0
73.486017404 11.0
73.490941260 14.0
73.495865116 14.0
73.500788972 22.0
73.505712828 15.0
73.510636684 10.0
73.515560540 9.0
73.520484396 11.0
73.525408252 19.0
73.530332108 13.0
73.535255964 15.0
73.540179820 14.0
73.545103676 16.0
73.550027532 9.0
73.554951388 13.0
73.559875244 14.0
73.564799100 13.0
73.569722956 10.0
73.574646812 8.0
73.579570668 15.0
73.584494524 18.0
73.589418380 9.0
73.594342236 19.0
73.599266092 10.0
73.604189948 11.0
73.609113804 16.0
73.614037660 10.0
73.618961516 13.0
73.623885372 10.0
73.628809228 13.0
73.633733084 14.0
73.638656940 8.0
73.643580796 9.0
73.648504652 9.0
73.653428508 18.0
73.658352364 9.0
73.663276220 13.0
73.668200076 7.0
73.673123932 16.0
73.678047788 22.0
73.682971644 15.0
73.687895500 20.0
73.692819356 16.0
73.697743212 16.0
73.702667069 8.0
73.707590925 9.0
73.712514781 16.0
73.717438637 14.0
73.722362493 13.0
73.727286349 16.0
73.732210205 11.0
73.737134061 14.0
73.742057917 13.0
73.746981773 14.0
73.751905629 12.0
73.756829485 11.0
73.761753341 13.0
73.766677197 12.0
73.771601053 10.0
73.776524909 11.0
73.781448765 14.0
73.786372621 7.0
73.791296477 5.0
73.796220333 11.0
73.801144189 17.0
73.806068045 13.0
73.810991901 16.0
73.815915757 7.0
73.820839613 12.0
73.825763469 4.0
73.830687325 20.0
73.835611181 19.0
73.840535037 12.0
73.845458893 9.0
73.850382749 11.0
73.855306605 11.0
73.860230461 19.0
73.865154317 12.0
73.870078173 13.0
73.875002029 15.0
73.879925885 12.0
73.884849741 13.0
73.889773597 17.0
73.894697453 12.0
73.899621309 12.0
73.904545165 16.0
73.909469021 15.0
73.914392877 13.0
73.919316733 15.0
73.924240589 23.0
73.929164445 8.0
73.934088301 11.0
73.939012157 2.0
73.943936013 16.0
73.948859869 11.0
73.953783725 5.0
73.958707581 8.0
73.963631437 11.0
73.968555293 11.0
73.973479149 19.0
73.978403005 15.0
73.983326861 9.0
73.988250717 11.0
73.993174573 7.0
73.998098429 11.0
74.003022285 8.0
74.007946141 9.0
74.012869997 9.0
74.017793853 8.0
74.022717709 11.0
74.027641565 10.0
74.032565421 14.0
74.037489277 8.0
74.042413133 10.0
74.047336989 12.0
74.052260845 13.0
74.057184701 8.0
74.062108557 9.0
74.067032413 11.0
74.071956270 10.0
74.076880126 15.0
74.081803982 14.0
74.086727838 12.0
74.091651694 13.0
74.096575550 14.0
74.101499406 9.0
74.106423262 11.0
74.111347118 14.0
74.116270974 19.0
74.121194830 20.0
74.126118686 12.0
74.131042542 5.0
74.135966398 7.0
74.140890254 13.0
74.145814110 11.0
74.150737966 11.0
74.155661822 13.0
74.160585678 17.0
74.165509534 11.0
74.170433390 14.0
74.175357246 10.0
74.180281102 16.0
74.185204958 7.0
74.190128814 9.0
74.195052670 10.0
74.199976526 11.0
74.204900382 11.0
74.209824238 10.0
74.214748094 13.0
74.219671950 13.0
74.224595806 15.0
74.229519662 8.0
74.234443518 9.0
74.239367374 16.0
74.244291230 7.0
74.249215086 11.0
74.254138942 8.0
74.259062798 12.0
74.263986654 9.0
74.268910510 18.0
74.273834366 11.0
74.278758222 7.0
74.283682078 9.0
74.288605934 9.0
74.293529790 9.0
74.298453646 19.0
74.303377502 6.0
74.308301358 9.0
74.313225214 8.0
74.318149070 14.0
74.323072926 13.0
74.327996782 17.0
74.332920638 15.0
74.337844494 14.0
74.342768350 12.0
74.347692206 13.0
74.352616062 17.0
74.357539918 12.0
74.362463774 20.0
74.367387630 11.0
74.372311486 4.0
74.377235342 10.0
74.382159198 9.0
74.387083054 9.0
74.392006910 16.0
74.396930766 12.0
74.401854622 16.0
74.406778478 7.0
74.411702334 13.0
74.416626190 6.0
74.421550046 8.0
74.426473902 6.0
74.431397758 14.0
74.436321614 10.0
74.441245470 13.0
74.446169327 9.0
74.451093183 13.0
74.456017039 13.0
74.460940895 9.0
74.465864751 9.0
74.470788607 6.0
74.475712463 14.0
74.480636319 13.0
74.485560175 12.0
74.490484031 12.0
74.495407887 10.0
74.500331743 13.0
74.505255599 12.0
74.510179455 12.0
74.515103311 9.0
74.520027167 14.0
74.524951023 13.0
74.529874879 11.0
74.534798735 12.0
74.539722591 11.0
74.544646447 18.0
74.549570303 20.0
74.554494159 7.0
74.559418015 11.0
74.564341871 11.0
74.569265727 15.0
74.574189583 3.0
74.579113439 8.0
74.584037295 11.0
74.588961151 19.0
74.593885007 8.0
74.598808863 13.0
74.603732719 14.0
74.608656575 8.0
74.613580431 13.0
74.618504287 18.0
74.623428143 14.0
74.628351999 14.0
74.633275855 10.0
74.638199711 11.0
74.643123567 21.0
74.648047423 14.0
74.652971279 13.0
74.657895135 12.0
74.662818991 12.0
74.667742847 7.0
74.672666703 9.0
74.677590559 12.0
74.682514415 12.0
74.687438271 9.0
74.692362127 12.0
74.697285983 5.0
74.702209839 13.0
74.707133695 2.0
74.712057551 15.0
74.716981407 15.0
74.721905263 9.0
74.726829119 11.0
74.731752975 13.0
74.736676831 6.0
74.741600687 10.0
74.746524543 12.0
74.751448399 8.0
74.756372255 19.0
74.761296111 7.0
74.766219967 16.0
74.771143823 7.0
74.776067679 11.0
74.780991535 13.0
74.785915391 11.0
74.790839247 12.0
74.795763103 10.0
74.800686959 10.0
74.805610815 12.0
74.810534671 8.0
74.815458528 11.0
74.820382384 8.0
74.825306240 12.0
74.830230096 12.0
74.835153952 9.0
74.840077808 13.0
74.845001664 16.0
74.849925520 10.0
74.854849376 10.0
74.859773232 13.0
74.864697088 10.0
74.869620944 18.0
74.874544800 12.0
74.879468656 20.0
74.884392512 12.0
74.889316368 5.0
74.894240224 11.0
74.899164080 11.0
74.904087936 11.0
74.909011792 13.0
74.913935648 12.0
74.918859504 13.0
74.923783360 10.0
74.928707216 13.0
74.933631072 8.0
74.938554928 9.0
74.943478784 8.0
74.948402640 12.0
74.953326496 17.0
74.958250352 8.0
74.963174208 11.0
74.968098064 6.0
74.973021920 11.0
74.977945776 9.0
74.982869632 12.0
74.987793488 17.0
74.992717344 8.0
74.997641200 11.0
