55.001861930 2.0
55.006785786 15.0
55.011709642 7.0
55.016633498 12.0
55.021557354 13.0
55.026481210 10.0
55.031405066 8.0
55.036328922 9.0
55.041252778 9.0
55.046176634 6.0
55.051100490 10.0
55.056024346 13.0
55.060948202 10.0
55.065872058 6.0
55.070795914 11.0
55.075719770 16.0
55.080643626 8.0
55.085567482 5.0
55.090491338 11.0
55.095415194 12.0
55.100339050 11.0
55.105262906 8.0
55.110186762 11.0
55.115110618 5.0
55.120034474 8.0
55.124958330 6.0
55.129882186 10.0
55.134806042 14.0
55.139729898 7.0
55.144653754 15.0
55.149577610 12.0
55.154501466 7.0
55.159425322 13.0
55.164349178 13.0
55.169273034 12.0
55.174196890 10.0
55.179120746 8.0
55.184044602 8.0
55.188968459 7.0
55.193892315 13.0
55.198816171 8.0
55.203740027 11.0
55.208663883 8.0
55.213587739 10.0
55.218511595 7.0
55.223435451 8.0
55.228359307 12.0
55.233283163 12.0
55.238207019 12.0
55.243130875 12.0
55.248054731 8.0
55.252978587 14.0
55.257902443 15.0
55.262826299 9.0
55.267750155 8.0
55.272674011 9.0
55.277597867 13.0
55.282521723 13.0
55.287445579 12.0
55.292369435 14.0
55.297293291 6.0
55.302217147 9.0
55.307141003 11.0
55.312064859 9.0
55.316988715 7.0
55.321912571 9.0
55.326836427 9.0
55.331760283 11.0
55.336684139 8.0
55.341607995 10.0
55.346531851 15.0
55.351455707 16.0
55.356379563 10.0
55.361303419 8.0
55.366227275 5.0
55.371151131 11.0
55.376074987 9.0
55.380998843 11.0
55.385922699 14.0
55.390846555 13.0
55.395770411 9.0
55.400694267 6.0
55.405618123 7.0
55.410541979 10.0
55.415465835 12.0
55.420389691 11.0
55.425313547 9.0
55.430237403 7.0
55.435161259 12.0
55.440085115 9.0
55.445008971 8.0
55.449932827 14.0
55.454856683 9.0
55.459780539 5.0
55.464704395 8.0
55.469628251 11.0
55.474552107 18.0
55.479475963 17.0
55.484399819 11.0
55.489323675 15.0
55.494247531 16.0
55.499171387 10.0
55.504095243 6.0
55.509019099 6.0
55.513942955 11.0
55.518866811 12.0
55.523790667 16.0
55.528714523 15.0
55.533638379 12.0
55.538562235 14.0
55.543486091 8.0
55.548409947 16.0
55.553333803 8.0
55.558257660 11.0
55.563181516 7.0
55.568105372 11.0
55.573029228 8.0
55.577953084 7.0
55.582876940 8.0
55.587800796 11.0
55.592724652 8.0
55.597648508 10.0
55.602572364 12.0
55.607496220 8.0
55.612420076 11.0
55.617343932 3.0
55.622267788 8.0
55.627191644 11.0
55.632115500 8.0
55.637039356 11.0
55.641963212 10.0
55.646887068 13.0
55.651810924 6.0
55.656734780 11.0
55.661658636 10.0
55.666582492 11.0
55.671506348 8.0
55.676430204 5.0
55.681354060 11.0
55.686277916 13.0
55.691201772 11.0
55.696125628 7.0
55.701049484 8.0
55.705973340 5.0
55.710897196 10.0
55.715821052 9.0
55.720744908 11.0
55.725668764 14.0
55.730592620 6.0
55.735516476 10.0
55.740440332 13.0
55.745364188 11.0
55.750288044 17.0
55.755211900 11.0
55.760135756 9.0
55.765059612 4.0
55.769983468 12.0
55.774907324 12.0
55.779831180 7.0
55.784755036 5.0
55.789678892 13.0
55.794602748 9.0
55.799526604 6.0
55.804450460 14.0
55.809374316 11.0
55.814298172 10.0
55.819222028 4.0
55.824145884 8.0
55.829069740 8.0
55.833993596 10.0
55.838917452 16.0
55.843841308 13.0
55.848765164 14.0
55.853689020 13.0
55.858612876 10.0
55.863536732 7.0
55.868460588 12.0
55.873384444 13.0
55.878308300 18.0
55.883232156 7.0
55.888156012 7.0
55.893079868 10.0
55.898003724 11.0
55.902927580 13.0
55.907851436 8.0
55.912775292 8.0
55.917699148 13.0
55.922623004 9.0
55.927546860 9.0
55.932470717 14.0
55.937394573 11.0
55.942318429 13.0
55.947242285 7.0
55.952166141 9.0
55.957089997 7.0
55.962013853 3.0
55.966937709 6.0
55.971861565 8.0
55.976785421 13.0
55.981709277 8.0
55.986633133 9.0
55.991556989 8.0
55.996480845 16.0
56.001404701 9.0
56.006328557 8.0
56.011252413 10.0
56.016176269 9.0
56.021100125 8.0
56.026023981 14.0
56.030947837 8.0
56.035871693 10.0
56.040795549 10.0
56.045719405 9.0
56.050643261 13.0
56.055567117 8.0
56.060490973 9.0
56.065414829 11.0
56.070338685 10.0
56.075262541 7.0
56.080186397 9.0
56.085110253 14.0
56.090034109 10.0
56.094957965 9.0
56.099881821 6.0
56.104805677 8.0
56.109729533 9.0
56.114653389 16.0
56.119577245 7.0
56.124501101 7.0
56.129424957 9.0
56.134348813 7.0
56.139272669 14.0
56.144196525 5.0
56.149120381 18.0
56.154044237 9.0
56.158968093 11.0
56.163891949 10.0
56.168815805 7.0
56.173739661 9.0
56.178663517 16.0
56.183587373 13.0
56.188511229 5.0
56.193435085 10.0
56.198358941 12.0
56.203282797 5.0
56.208206653 6.0
56.213130509 7.0
56.218054365 9.0
56.222978221 15.0
56.227902077 13.0
56.232825933 6.0
56.237749789 5.0
56.242673645 7.0
56.247597501 12.0
56.252521357 12.0
56.257445213 9.0
56.262369069 13.0
56.267292925 7.0
56.272216781 8.0
56.277140637 5.0
56.282064493 11.0
56.286988349 15.0
56.291912205 11.0
56.296836061 15.0
56.301759918 5.0
56.306683774 14.0
56.311607630 10.0
56.316531486 11.0
56.321455342 11.0
56.326379198 9.0
56.331303054 12.0
56.336226910 9.0
56.341150766 10.0
56.346074622 8.0
56.350998478 11.0
56.355922334 14.0
56.360846190 10.0
56.365770046 7.0
56.370693902 5.0
56.375617758 12.0
56.380541614 10.0
56.385465470 12.0
56.390389326 17.0
56.395313182 9.0
56.400237038 6.0
56.405160894 7.0
56.410084750 9.0
56.415008606 12.0
56.419932462 15.0
56.424856318 11.0
56.429780174 14.0
56.434704030 11.0
56.439627886 9.0
56.444551742 9.0
56.449475598 11.0
56.454399454 11.0
56.459323310 6.0
56.464247166 10.0
56.469171022 10.0
56.474094878 10.0
56.479018734 14.0
56.483942590 9.0
56.488866446 7.0
56.493790302 5.0
56.498714158 11.0
56.503638014 7.0
56.508561870 4.0
56.513485726 12.0
56.518409582 8.0
56.523333438 10.0
56.528257294 8.0
56.533181150 18.0
56.538105006 10.0
56.543028862 13.0
56.547952718 12.0
56.552876574 8.0
56.557800430 9.0
56.562724286 14.0
56.567648142 13.0
56.572571998 14.0
56.577495854 8.0
56.582419710 7.0
56.587343566 6.0
56.592267422 6.0
56.597191278 20.0
56.602115134 11.0
56.607038990 10.0
56.611962846 10.0
56.616886702 9.0
56.621810558 5.0
56.626734414 8.0
56.631658270 7.0
56.636582126 7.0
56.641505982 6.0
56.646429838 11.0
56.651353694 12.0
56.656277550 14.0
56.661201406 13.0
56.666125262 16.0
56.671049119 8.0
56.675972975 12.0
56.680896831 7.0
56.685820687 9.0
56.690744543 4.0
56.695668399 10.0
56.700592255 9.0
56.705516111 8.0
56.710439967 7.0
56.715363823 7.0
56.720287679 10.0
56.725211535 8.0
56.730135391 14.0
56.735059247 10.0
56.739983103 9.0
56.744906959 13.0
56.749830815 7.0
56.754754671 11.0
56.759678527 10.0
56.764602383 12.0
56.769526239 12.0
56.774450095 11.0
56.779373951 8.0
56.784297807 14.0
56.789221663 10.0
56.794145519 11.0
56.799069375 8.0
56.803993231 7.0
56.808917087 13.0
56.813840943 6.0
56.818764799 12.0
56.823688655 9.0
56.828612511 9.0
56.833536367 14.0
56.838460223 10.0
56.843384079 8.0
56.848307935 8.0
56.853231791 8.0
56.858155647 9.0
56.863079503 4.0
56.868003359 12.0
56.872927215 9.0
56.877851071 8.0
56.882774927 12.0
56.887698783 6.0
56.892622639 11.0
56.897546495 11.0
56.902470351 7.0
56.907394207 6.0
56.912318063 13.0
56.917241919 13.0
56.922165775 10.0
56.927089631 9.0
56.932013487 10.0
56.936937343 7.0
56.941861199 9.0
56.946785055 8.0
56.951708911 15.0
56.956632767 7.0
56.961556623 14.0
56.966480479 10.0
56.971404335 5.0
56.976328191 7.0
56.981252047 13.0
56.986175903 7.0
56.991099759 8.0
56.996023615 10.0
57.000947471 13.0
57.005871327 8.0
57.010795183 15.0
57.015719039 6.0
57.020642895 16.0
57.025566751 9.0
57.030490607 11.0
57.035414463 13.0
57.040338320 13.0
57.045262176 7.0
57.050186032 10.0
57.055109888 8.0
57.060033744 11.0
57.064957600 8.0
57.069881456 5.0
57.074805312 13.0
57.079729168 11.0
57.084653024 13.0
57.089576880 12.0
57.094500736 10.0
57.099424592 7.0
57.104348448 12.0
57.109272304 9.0
57.114196160 11.0
57.119120016 13.0
57.124043872 8.0
57.128967728 7.0
57.133891584 8.0
57.138815440 7.0
57.143739296 14.0
57.148663152 7.0
57.153587008 16.0
57.158510864 12.0
57.163434720 9.0
57.168358576 7.0
57.173282432 7.0
57.178206288 6.0
57.183130144 9.0
57.188054000 10.0
57.192977856 14.0
57.197901712 16.0
57.202825568 9.0
57.207749424 9.0
57.212673280 9.0
57.217597136 11.0
57.222520992 14.0
57.227444848 14.0
57.232368704 14.0
57.237292560 11.0
57.242216416 9.0
57.247140272 13.0
57.252064128 10.0
57.256987984 7.0
57.261911840 10.0
57.266835696 6.0
57.271759552 7.0
57.276683408 15.0
57.281607264 8.0
57.286531120 8.0
57.291454976 13.0
57.296378832 13.0
57.301302688 9.0
57.306226544 9.0
57.311150400 10.0
57.316074256 14.0
57.320998112 9.0
57.325921968 6.0
57.330845824 13.0
57.335769680 10.0
57.340693536 10.0
57.345617392 12.0
57.350541248 7.0
57.355465104 11.0
57.360388960 6.0
57.365312816 10.0
57.370236672 15.0
57.375160528 3.0
57.380084384 16.0
57.385008240 12.0
57.389932096 12.0
57.394855952 9.0
57.399779808 8.0
57.404703664 8.0
57.409627521 11.0
57.414551377 10.0
57.419475233 12.0
57.424399089 4.0
57.429322945 10.0
57.434246801 12.0
57.439170657 10.0
57.444094513 8.0
57.449018369 13.0
57.453942225 7.0
57.458866081 9.0
57.463789937 11.0
57.468713793 13.0
57.473637649 10.0
57.478561505 12.0
57.483485361 15.0
57.488409217 7.0
57.493333073 10.0
57.498256929 9.0
57.503180785 9.0
57.508104641 6.0
57.513028497 15.0
57.517952353 11.0
57.522876209 12.0
57.527800065 13.0
57.532723921 13.0
57.537647777 12.0
57.542571633 10.0
57.547495489 5.0
57.552419345 6.0
57.557343201 7.0
57.562267057 7.0
57.567190913 9.0
57.572114769 9.0
57.577038625 9.0
57.581962481 11.0
57.586886337 8.0
57.591810193 15.0
57.596734049 18.0
57.601657905 11.0
57.606581761 9.0
57.611505617 14.0
57.616429473 13.0
57.621353329 14.0
57.626277185 11.0
57.631201041 11.0
57.636124897 11.0
57.641048753 8.0
57.645972609 10.0
57.650896465 10.0
57.655820321 9.0
57.660744177 12.0
57.665668033 7.0
57.670591889 6.0
57.675515745 14.0
57.680439601 10.0
57.685363457 7.0
57.690287313 16.0
57.695211169 18.0
57.700135025 11.0
57.705058881 5.0
57.709982737 12.0
57.714906593 16.0
57.719830449 11.0
57.724754305 10.0
57.729678161 17.0
57.734602017 14.0
57.739525873 10.0
57.744449729 8.0
57.749373585 14.0
57.754297441 14.0
57.759221297 14.0
57.764145153 8.0
57.769069009 12.0
57.773992865 10.0
57.778916721 9.0
57.783840578 14.0
57.788764434 9.0
57.793688290 16.0
57.798612146 13.0
57.803536002 17.0
57.808459858 4.0
57.813383714 8.0
57.818307570 10.0
57.823231426 9.0
57.828155282 16.0
57.833079138 10.0
57.838002994 5.0
57.842926850 9.0
57.847850706 15.0
57.852774562 13.0
57.857698418 12.0
57.862622274 15.0
57.867546130 17.0
57.872469986 11.0
57.877393842 15.0
57.882317698 11.0
57.887241554 15.0
57.892165410 15.0
57.897089266 8.0
57.902013122 13.0
57.906936978 12.0
57.911860834 9.0
57.916784690 12.0
57.921708546 9.0
57.926632402 13.0
57.931556258 14.0
57.936480114 10.0
57.941403970 11.0
57.946327826 12.0
57.951251682 9.0
57.956175538 8.0
57.961099394 12.0
57.966023250 8.0
57.970947106 16.0
57.975870962 12.0
57.980794818 9.0
57.985718674 11.0
57.990642530 9.0
57.995566386 12.0
58.000490242 9.0
58.005414098 8.0
58.010337954 11.0
58.015261810 8.0
58.020185666 9.0
58.025109522 13.0
58.030033378 10.0
58.034957234 18.0
58.039881090 11.0
58.044804946 5.0
58.049728802 16.0
58.054652658 8.0
58.059576514 10.0
58.064500370 8.0
58.069424226 7.0
58.074348082 10.0
58.079271938 14.0
58.084195794 9.0
58.089119650 10.0
58.094043506 15.0
58.098967362 13.0
58.103891218 10.0
58.108815074 13.0
58.113738930 15.0
58.118662786 13.0
58.123586642 10.0
58.128510498 12.0
58.133434354 6.0
58.138358210 9.0
58.143282066 12.0
58.148205922 8.0
58.153129779 9.0
58.158053635 18.0
58.162977491 8.0
58.167901347 19.0
58.172825203 11.0
58.177749059 9.0
58.182672915 5.0
58.187596771 10.0
58.192520627 14.0
58.197444483 10.0
58.202368339 8.0
58.207292195 7.0
58.212216051 8.0
58.217139907 5.0
58.222063763 12.0
58.226987619 11.0
58.231911475 11.0
58.236835331 10.0
58.241759187 12.0
58.246683043 11.0
58.251606899 12.0
58.256530755 14.0
58.261454611 12.0
58.266378467 11.0
58.271302323 5.0
58.276226179 11.0
58.281150035 12.0
58.286073891 5.0
58.290997747 9.0
58.295921603 7.0
58.300845459 14.0
58.305769315 10.0
58.310693171 10.0
58.315617027 15.0
58.320540883 12.0
58.325464739 17.0
58.330388595 10.0
58.335312451 15.0
58.340236307 10.0
58.345160163 7.0
58.350084019 3.0
58.355007875 11.0
58.359931731 9.0
58.364855587 14.0
58.369779443 16.0
58.374703299 16.0
58.379627155 7.0
58.384551011 9.0
58.389474867 9.0
58.394398723 15.0
58.399322579 13.0
58.404246435 13.0
58.409170291 10.0
58.414094147 8.0
58.419018003 13.0
58.423941859 13.0
58.428865715 15.0
58.433789571 5.0
58.438713427 12.0
58.443637283 7.0
58.448561139 14.0
58.453484995 9.0
58.458408851 11.0
58.463332707 15.0
58.468256563 10.0
58.473180419 13.0
58.478104275 13.0
58.483028131 12.0
58.487951987 7.0
58.492875843 10.0
58.497799699 7.0
58.502723555 8.0
58.507647411 20.0
58.512571267 9.0
58.517495123 14.0
58.522418980 14.0
58.527342836 5.0
58.532266692 14.0
58.537190548 15.0
58.542114404 9.0
58.547038260 9.0
58.551962116 11.0
58.556885972 10.0
58.561809828 11.0
58.566733684 16.0
58.571657540 7.0
58.576581396 9.0
58.581505252 9.0
58.586429108 7.0
58.591352964 7.0
58.596276820 11.0
58.601200676 14.0
58.606124532 9.0
58.611048388 9.0
58.615972244 9.0
58.620896100 12.0
58.625819956 17.0
58.630743812 11.0
58.635667668 14.0
58.640591524 15.0
58.645515380 15.0
58.650439236 9.0
58.655363092 8.0
58.660286948 9.0
58.665210804 9.0
58.670134660 12.0
58.675058516 13.0
58.679982372 8.0
58.684906228 14.0
58.689830084 12.0
58.694753940 12.0
58.699677796 15.0
58.704601652 15.0
58.709525508 13.0
58.714449364 12.0
58.719373220 8.0
58.724297076 6.0
58.729220932 12.0
58.734144788 9.0
58.739068644 11.0
58.743992500 5.0
58.748916356 17.0
58.753840212 2.0
58.758764068 9.0
58.763687924 9.0
58.768611780 12.0
58.773535636 11.0
58.778459492 10.0
58.783383348 10.0
58.788307204 7.0
58.793231060 6.0
58.798154916 8.0
58.803078772 15.0
58.808002628 15.0
58.812926484 14.0
58.817850340 9.0
58.822774196 5.0
58.827698052 7.0
58.832621908 10.0
58.837545764 16.0
58.842469620 10.0
58.847393476 11.0
58.852317332 8.0
58.857241188 4.0
58.862165044 13.0
58.867088900 7.0
58.872012756 3.0
58.876936612 9.0
58.881860468 14.0
58.886784324 12.0
58.891708181 5.0
58.896632037 10.0
58.901555893 12.0
58.906479749 7.0
58.911403605 14.0
58.916327461 9.0
58.921251317 15.0
58.926175173 15.0
58.931099029 8.0
58.936022885 13.0
58.940946741 7.0
58.945870597 12.0
58.950794453 13.0
58.955718309 11.0
58.960642165 14.0
58.965566021 6.0
58.970489877 15.0
58.975413733 14.0
58.980337589 8.0
58.985261445 10.0
58.990185301 10.0
58.995109157 7.0
59.000033013 7.0
59.004956869 6.0
59.009880725 14.0
59.014804581 5.0
59.019728437 6.0
59.024652293 8.0
59.029576149 10.0
59.034500005 12.0
59.039423861 13.0
59.044347717 14.0
59.049271573 6.0
59.054195429 14.0
59.059119285 11.0
59.064043141 12.0
59.068966997 7.0
59.073890853 9.0
59.078814709 15.0
59.083738565 9.0
59.088662421 18.0
59.093586277 15.0
59.098510133 10.0
59.103433989 10.0
59.108357845 11.0
59.113281701 8.0
59.118205557 6.0
59.123129413 4.0
59.128053269 13.0
59.132977125 12.0
59.137900981 7.0
59.142824837 9.0
59.147748693 15.0
59.152672549 12.0
59.157596405 8.0
59.162520261 9.0
59.167444117 7.0
59.172367973 12.0
59.177291829 7.0
59.182215685 8.0
59.187139541 13.0
59.192063397 11.0
59.196987253 11.0
59.201911109 9.0
59.206834965 5.0
59.211758821 7.0
59.216682677 12.0
59.221606533 8.0
59.226530389 12.0
59.231454245 13.0
59.236378101 12.0
59.241301957 12.0
59.246225813 11.0
59.251149669 16.0
59.256073525 19.0
59.260997382 16.0
59.265921238 11.0
59.270845094 11.0
59.275768950 10.0
59.280692806 12.0
59.285616662 13.0
59.290540518 7.0
59.295464374 9.0
59.300388230 12.0
59.305312086 7.0
59.310235942 8.0
59.315159798 14.0
59.320083654 8.0
59.325007510 11.0
59.329931366 14.0
59.334855222 7.0
59.339779078 14.0
59.344702934 10.0
59.349626790 16.0
59.354550646 7.0
59.359474502 11.0
59.364398358 8.0
59.369322214 7.0
59.374246070 11.0
59.379169926 11.0
59.384093782 14.0
59.389017638 10.0
59.393941494 11.0
59.398865350 16.0
59.403789206 9.0
59.408713062 9.0
59.413636918 7.0
59.418560774 12.0
59.423484630 9.0
59.428408486 13.0
59.433332342 12.0
59.438256198 6.0
59.443180054 5.0
59.448103910 13.0
59.453027766 10.0
59.457951622 9.0
59.462875478 4.0
59.467799334 13.0
59.472723190 8.0
59.477647046 10.0
59.482570902 9.0
59.487494758 10.0
59.492418614 6.0
59.497342470 9.0
59.502266326 10.0
59.507190182 15.0
59.512114038 13.0
59.517037894 11.0
59.521961750 13.0
59.526885606 6.0
59.531809462 11.0
59.536733318 10.0
59.541657174 15.0
59.546581030 12.0
59.551504886 9.0
59.556428742 17.0
59.561352598 17.0
59.566276454 13.0
59.571200310 11.0
59.576124166 13.0
59.581048022 11.0
59.585971878 9.0
59.590895734 10.0
59.595819590 15.0
59.600743446 8.0
59.605667302 7.0
59.610591158 11.0
59.615515014 9.0
59.620438870 13.0
59.625362726 6.0
59.630286582 5.0
59.635210439 9.0
59.640134295 8.0
59.645058151 4.0
59.649982007 14.0
59.654905863 7.0
59.659829719 10.0
59.664753575 9.0
59.669677431 13.0
59.674601287 9.0
59.679525143 17.0
59.684448999 12.0
59.689372855 14.0
59.694296711 16.0
59.699220567 9.0
59.704144423 15.0
59.709068279 10.0
59.713992135 15.0
59.718915991 4.0
59.723839847 12.0
59.728763703 13.0
59.733687559 11.0
59.738611415 11.0
59.743535271 8.0
59.748459127 11.0
59.753382983 14.0
59.758306839 15.0
59.763230695 12.0
59.768154551 15.0
59.773078407 16.0
59.778002263 14.0
59.782926119 13.0
59.787849975 9.0
59.792773831 10.0
59.797697687 12.0
59.802621543 16.0
59.807545399 15.0
59.812469255 5.0
59.817393111 13.0
59.822316967 9.0
59.827240823 12.0
59.832164679 12.0
59.837088535 11.0
59.842012391 17.0
59.846936247 7.0
59.851860103 12.0
59.856783959 7.0
59.861707815 13.0
59.866631671 20.0
59.871555527 9.0
59.876479383 9.0
59.881403239 14.0
59.886327095 3.0
59.891250951 9.0
59.896174807 9.0
59.901098663 15.0
59.906022519 14.0
59.910946375 14.0
59.915870231 16.0
59.920794087 10.0
59.925717943 13.0
59.930641799 4.0
59.935565655 14.0
59.940489511 7.0
59.945413367 15.0
59.950337223 17.0
59.955261079 11.0
59.960184935 8.0
59.965108791 12.0
59.970032647 11.0
59.974956503 14.0
59.979880359 8.0
59.984804215 14.0
59.989728071 8.0
59.994651927 6.0
59.999575783 19.0
60.004499640 13.0
60.009423496 12.0
60.014347352 9.0
60.019271208 13.0
60.024195064 10.0
60.029118920 9.0
60.034042776 8.0
60.038966632 7.0
60.043890488 11.0
60.048814344 13.0
60.053738200 10.0
60.058662056 9.0
60.063585912 10.0
60.068509768 16.0
60.073433624 5.0
60.078357480 14.0
60.083281336 8.0
60.088205192 12.0
60.093129048 8.0
60.098052904 16.0
60.102976760 6.0
60.107900616 11.0
60.112824472 8.0
60.117748328 5.0
60.122672184 14.0
60.127596040 14.0
60.132519896 17.0
60.137443752 9.0
60.142367608 10.0
60.147291464 13.0
60.152215320 14.0
60.157139176 12.0
60.162063032 7.0
60.166986888 20.0
60.171910744 11.0
60.176834600 19.0
60.181758456 9.0
60.186682312 8.0
60.191606168 10.0
60.196530024 15.0
60.201453880 13.0
60.206377736 11.0
60.211301592 25.0
60.216225448 16.0
60.221149304 20.0
60.226073160 14.0
60.230997016 22.0
60.235920872 20.0
60.240844728 13.0
60.245768584 20.0
60.250692440 20.0
60.255616296 13.0
60.260540152 21.0
60.265464008 14.0
60.270387864 9.0
60.275311720 19.0
60.280235576 13.0
60.285159432 19.0
60.290083288 15.0
60.295007144 21.0
60.299931000 12.0
60.304854856 24.0
60.309778712 17.0
60.314702568 11.0
60.319626424 22.0
60.324550280 16.0
60.329474136 21.0
60.334397992 14.0
60.339321848 12.0
60.344245704 15.0
60.349169560 23.0
60.354093416 19.0
60.359017272 20.0
60.363941128 13.0
60.368864984 15.0
60.373788841 7.0
60.378712697 18.0
60.383636553 25.0
60.388560409 15.0
60.393484265 16.0
60.398408121 19.0
60.403331977 24.0
60.408255833 7.0
60.413179689 12.0
60.418103545 12.0
60.423027401 15.0
60.427951257 20.0
60.432875113 20.0
60.437798969 19.0
60.442722825 16.0
60.447646681 16.0
60.452570537 19.0
60.457494393 10.0
60.462418249 7.0
60.467342105 11.0
60.472265961 21.0
60.477189817 21.0
60.482113673 17.0
60.487037529 19.0
60.491961385 14.0
60.496885241 11.0
60.501809097 15.0
60.506732953 18.0
60.511656809 17.0
60.516580665 17.0
60.521504521 15.0
60.526428377 19.0
60.531352233 13.0
60.536276089 24.0
60.541199945 17.0
60.546123801 15.0
60.551047657 12.0
60.555971513 20.0
60.560895369 22.0
60.565819225 16.0
60.570743081 28.0
60.575666937 18.0
60.580590793 17.0
60.585514649 16.0
60.590438505 19.0
60.595362361 19.0
60.600286217 17.0
60.605210073 24.0
60.610133929 21.0
60.615057785 24.0
60.619981641 16.0
60.624905497 18.0
60.629829353 28.0
60.634753209 25.0
60.639677065 27.0
60.644600921 31.0
60.649524777 23.0
60.654448633 23.0
60.659372489 28.0
60.664296345 31.0
60.669220201 46.0
60.674144057 45.0
60.679067913 33.0
60.683991769 36.0
60.688915625 40.0
60.693839481 46.0
60.698763337 42.0
60.703687193 52.0
60.708611049 72.0
60.713534905 78.0
60.718458761 73.0
60.723382617 94.0
60.728306473 98.0
60.733230329 122.0
60.738154185 152.0
60.743078042 150.0
60.748001898 256.0
60.752925754 265.0
60.757849610 345.0
60.762773466 417.0
60.767697322 468.0
60.772621178 543.0
60.777545034 575.0
60.782468890 634.0
60.787392746 626.0
60.792316602 696.0
60.797240458 699.0
60.802164314 672.0
60.807088170 662.0
60.812012026 597.0
60.816935882 501.0
60.821859738 482.0
60.826783594 433.0
60.831707450 371.0
60.836631306 329.0
60.841555162 300.0
60.846479018 312.0
60.851402874 201.0
60.856326730 214.0
60.861250586 215.0
60.866174442 220.0
60.871098298 187.0
60.876022154 255.0
60.880946010 190.0
60.885869866 147.0
60.890793722 175.0
60.895717578 151.0
60.900641434 132.0
60.905565290 128.0
60.910489146 114.0
60.915413002 101.0
60.920336858 88.0
60.925260714 87.0
60.930184570 78.0
60.935108426 86.0
60.940032282 68.0
60.944956138 61.0
60.949879994 54.0
60.954803850 70.0
60.959727706 51.0
60.964651562 53.0
60.969575418 48.0
60.974499274 47.0
60.979423130 35.0
60.984346986 50.0
60.989270842 36.0
60.994194698 31.0
60.999118554 39.0
61.004042410 26.0
61.008966266 39.0
61.013890122 31.0
61.018813978 32.0
61.023737834 32.0
61.028661690 21.0
61.033585546 34.0
61.038509402 29.0
61.043433258 40.0
61.048357114 24.0
61.053280970 20.0
61.058204826 34.0
61.063128682 17.0
61.068052538 19.0
61.072976394 24.0
61.077900250 24.0
61.082824106 25.0
61.087747962 29.0
61.092671818 18.0
61.097595674 28.0
61.102519530 18.0
61.107443386 37.0
61.112367243 22.0
61.117291099 24.0
61.122214955 18.0
61.127138811 21.0
61.132062667 24.0
61.136986523 33.0
61.141910379 22.0
61.146834235 24.0
61.151758091 24.0
61.156681947 25.0
61.161605803 19.0
61.166529659 20.0
61.171453515 25.0
61.176377371 25.0
61.181301227 20.0
61.186225083 18.0
61.191148939 27.0
61.196072795 18.0
61.200996651 22.0
61.205920507 23.0
61.210844363 20.0
61.215768219 20.0
61.220692075 19.0
61.225615931 22.0
61.230539787 10.0
61.235463643 19.0
61.240387499 19.0
61.245311355 21.0
61.250235211 22.0
61.255159067 23.0
61.260082923 21.0
61.265006779 20.0
61.269930635 22.0
61.274854491 19.0
61.279778347 14.0
61.284702203 14.0
61.289626059 20.0
61.294549915 20.0
61.299473771 27.0
61.304397627 16.0
61.309321483 18.0
61.314245339 16.0
61.319169195 14.0
61.324093051 18.0
61.329016907 18.0
61.333940763 20.0
61.338864619 19.0
61.343788475 23.0
61.348712331 18.0
61.353636187 14.0
61.358560043 27.0
61.363483899 22.0
61.368407755 18.0
61.373331611 13.0
61.378255467 22.0
61.383179323 20.0
61.388103179 23.0
61.393027035 20.0
61.397950891 18.0
61.402874747 14.0
61.407798603 12.0
61.412722459 23.0
61.417646315 22.0
61.422570171 16.0
61.427494027 14.0
61.432417883 19.0
61.437341739 17.0
61.442265595 22.0
61.447189451 19.0
61.452113307 13.0
61.457037163 14.0
61.461961019 19.0
61.466884875 19.0
61.471808731 19.0
61.476732587 21.0
61.481656443 22.0
61.486580300 20.0
61.491504156 18.0
61.496428012 27.0
61.501351868 21.0
61.506275724 22.0
61.511199580 9.0
61.516123436 11.0
61.521047292 16.0
61.525971148 16.0
61.530895004 19.0
61.535818860 9.0
61.540742716 15.0
61.545666572 28.0
61.550590428 21.0
61.555514284 10.0
61.560438140 11.0
61.565361996 11.0
61.570285852 13.0
61.575209708 20.0
61.580133564 10.0
61.585057420 27.0
61.589981276 15.0
61.594905132 17.0
61.599828988 19.0
61.604752844 24.0
61.609676700 25.0
61.614600556 10.0
61.619524412 19.0
61.624448268 14.0
61.629372124 17.0
61.634295980 16.0
61.639219836 24.0
61.644143692 18.0
61.649067548 25.0
61.653991404 7.0
61.658915260 8.0
61.663839116 16.0
61.668762972 18.0
61.673686828 22.0
61.678610684 14.0
61.683534540 9.0
61.688458396 14.0
61.693382252 20.0
61.698306108 26.0
61.703229964 13.0
61.708153820 22.0
61.713077676 15.0
61.718001532 17.0
61.722925388 18.0
61.727849244 15.0
61.732773100 18.0
61.737696956 14.0
61.742620812 22.0
61.747544668 15.0
61.752468524 19.0
61.757392380 17.0
61.762316236 26.0
61.767240092 18.0
61.772163948 20.0
61.777087804 17.0
61.782011660 11.0
61.786935516 16.0
61.791859372 18.0
61.796783228 16.0
61.801707084 22.0
61.806630940 12.0
61.811554796 18.0
61.816478652 21.0
61.821402508 20.0
61.826326364 12.0
61.831250220 9.0
61.836174076 20.0
61.841097932 7.0
61.846021788 21.0
61.850945644 17.0
61.855869501 19.0
61.860793357 14.0
61.865717213 21.0
61.870641069 13.0
61.875564925 19.0
61.880488781 23.0
61.885412637 14.0
61.890336493 10.0
61.895260349 22.0
61.900184205 14.0
61.905108061 15.0
61.910031917 14.0
61.914955773 14.0
61.919879629 18.0
61.924803485 17.0
61.929727341 22.0
61.934651197 20.0
61.939575053 15.0
61.944498909 15.0
61.949422765 14.0
61.954346621 12.0
61.959270477 20.0
61.964194333 25.0
61.969118189 14.0
61.974042045 13.0
61.978965901 19.0
61.983889757 14.0
61.988813613 18.0
61.993737469 18.0
61.998661325 19.0
62.003585181 10.0
62.008509037 15.0
62.013432893 19.0
62.018356749 17.0
62.023280605 19.0
62.028204461 20.0
62.033128317 19.0
62.038052173 23.0
62.042976029 14.0
62.047899885 15.0
62.052823741 20.0
62.057747597 11.0
62.062671453 13.0
62.067595309 27.0
62.072519165 20.0
62.077443021 21.0
62.082366877 18.0
62.087290733 15.0
62.092214589 18.0
62.097138445 15.0
62.102062301 16.0
62.106986157 14.0
62.111910013 16.0
62.116833869 18.0
62.121757725 24.0
62.126681581 9.0
62.131605437 19.0
62.136529293 18.0
62.141453149 16.0
62.146377005 20.0
62.151300861 18.0
62.156224717 16.0
62.161148573 19.0
62.166072429 25.0
62.170996285 18.0
62.175920141 21.0
62.180843997 21.0
62.185767853 16.0
62.190691709 17.0
62.195615565 12.0
62.200539421 22.0
62.205463277 19.0
62.210387133 22.0
62.215310989 15.0
62.220234845 19.0
62.225158702 24.0
62.230082558 10.0
62.235006414 24.0
62.239930270 21.0
62.244854126 26.0
62.249777982 15.0
62.254701838 9.0
62.259625694 22.0
62.264549550 26.0
62.269473406 9.0
62.274397262 10.0
62.279321118 13.0
62.284244974 23.0
62.289168830 20.0
62.294092686 18.0
62.299016542 16.0
62.303940398 21.0
62.308864254 15.0
62.313788110 24.0
62.318711966 16.0
62.323635822 15.0
62.328559678 19.0
62.333483534 22.0
62.338407390 17.0
62.343331246 15.0
62.348255102 16.0
62.353178958 17.0
62.358102814 12.0
62.363026670 17.0
62.367950526 11.0
62.372874382 25.0
62.377798238 14.0
62.382722094 17.0
62.387645950 16.0
62.392569806 17.0
62.397493662 24.0
62.402417518 16.0
62.407341374 19.0
62.412265230 16.0
62.417189086 18.0
62.422112942 25.0
62.427036798 19.0
62.431960654 16.0
62.436884510 16.0
62.441808366 18.0
62.446732222 20.0
62.451656078 23.0
62.456579934 22.0
62.461503790 27.0
62.466427646 24.0
62.471351502 20.0
62.476275358 15.0
62.481199214 20.0
62.486123070 20.0
62.491046926 20.0
62.495970782 27.0
62.500894638 10.0
62.505818494 24.0
62.510742350 24.0
62.515666206 25.0
62.520590062 24.0
62.525513918 9.0
62.530437774 25.0
62.535361630 17.0
62.540285486 20.0
62.545209342 12.0
62.550133198 17.0
62.555057054 18.0
62.559980910 23.0
62.564904766 26.0
62.569828622 21.0
62.574752478 18.0
62.579676334 18.0
62.584600190 28.0
62.589524046 20.0
62.594447903 19.0
62.599371759 23.0
62.604295615 31.0
62.609219471 15.0
62.614143327 21.0
62.619067183 24.0
62.623991039 27.0
62.628914895 21.0
62.633838751 22.0
62.638762607 18.0
62.643686463 17.0
62.648610319 22.0
62.653534175 29.0
62.658458031 25.0
62.663381887 29.0
62.668305743 27.0
62.673229599 14.0
62.678153455 27.0
62.683077311 15.0
62.688001167 27.0
62.692925023 16.0
62.697848879 22.0
62.702772735 21.0
62.707696591 23.0
62.712620447 21.0
62.717544303 25.0
62.722468159 24.0
62.727392015 21.0
62.732315871 20.0
62.737239727 32.0
62.742163583 23.0
62.747087439 23.0
62.752011295 27.0
62.756935151 21.0
62.761859007 25.0
62.766782863 25.0
62.771706719 20.0
62.776630575 28.0
62.781554431 21.0
62.786478287 17.0
62.791402143 21.0
62.796325999 26.0
62.801249855 23.0
62.806173711 21.0
62.811097567 20.0
62.816021423 23.0
62.820945279 21.0
62.825869135 17.0
62.830792991 16.0
62.835716847 18.0
62.840640703 27.0
62.845564559 23.0
62.850488415 16.0
62.855412271 30.0
62.860336127 18.0
62.865259983 32.0
62.870183839 32.0
62.875107695 18.0
62.880031551 23.0
62.884955407 17.0
62.889879263 18.0
62.894803119 25.0
62.899726975 22.0
62.904650831 20.0
62.909574687 21.0
62.914498543 21.0
62.919422399 20.0
62.924346255 22.0
62.929270111 23.0
62.934193967 19.0
62.939117823 18.0
62.944041679 29.0
62.948965535 20.0
62.953889391 19.0
62.958813247 26.0
62.963737104 27.0
62.968660960 21.0
62.973584816 23.0
62.978508672 29.0
62.983432528 29.0
62.988356384 28.0
62.993280240 29.0
62.998204096 18.0
63.003127952 26.0
63.008051808 17.0
63.012975664 20.0
63.017899520 23.0
63.022823376 22.0
63.027747232 35.0
63.032671088 16.0
63.037594944 29.0
63.042518800 29.0
63.047442656 18.0
63.052366512 27.0
63.057290368 32.0
63.062214224 25.0
63.067138080 30.0
63.072061936 38.0
63.076985792 27.0
63.081909648 25.0
63.086833504 26.0
63.091757360 29.0
63.096681216 26.0
63.101605072 20.0
63.106528928 24.0
63.111452784 34.0
63.116376640 21.0
63.121300496 30.0
63.126224352 22.0
63.131148208 24.0
63.136072064 28.0
63.140995920 22.0
63.145919776 25.0
63.150843632 26.0
63.155767488 27.0
63.160691344 26.0
63.165615200 25.0
63.170539056 25.0
63.175462912 24.0
63.180386768 24.0
63.185310624 26.0
63.190234480 34.0
63.195158336 46.0
63.200082192 21.0
63.205006048 26.0
63.209929904 25.0
63.214853760 28.0
63.219777616 28.0
63.224701472 24.0
63.229625328 25.0
63.234549184 27.0
63.239473040 27.0
63.244396896 42.0
63.249320752 24.0
63.254244608 32.0
63.259168464 28.0
63.264092320 35.0
63.269016176 33.0
63.273940032 33.0
63.278863888 31.0
63.283787744 24.0
63.288711600 25.0
63.293635456 19.0
63.298559312 21.0
63.303483168 42.0
63.308407024 32.0
63.313330880 35.0
63.318254736 28.0
63.323178592 22.0
63.328102448 32.0
63.333026304 24.0
63.337950161 27.0
63.342874017 25.0
63.347797873 44.0
63.352721729 32.0
63.357645585 35.0
63.362569441 38.0
63.367493297 30.0
63.372417153 36.0
63.377341009 29.0
63.382264865 37.0
63.387188721 44.0
63.392112577 37.0
63.397036433 49.0
63.401960289 32.0
63.406884145 33.0
63.411808001 28.0
63.416731857 28.0
63.421655713 37.0
63.426579569 24.0
63.431503425 37.0
63.436427281 41.0
63.441351137 27.0
63.446274993 36.0
63.451198849 38.0
63.456122705 26.0
63.461046561 32.0
63.465970417 37.0
63.470894273 31.0
63.475818129 38.0
63.480741985 34.0
63.485665841 37.0
63.490589697 28.0
63.495513553 45.0
63.500437409 41.0
63.505361265 34.0
63.510285121 40.0
63.515208977 36.0
63.520132833 36.0
63.525056689 40.0
63.529980545 38.0
63.534904401 38.0
63.539828257 47.0
63.544752113 40.0
63.549675969 28.0
63.554599825 39.0
63.559523681 40.0
63.564447537 43.0
63.569371393 37.0
63.574295249 43.0
63.579219105 41.0
63.584142961 41.0
63.589066817 41.0
63.593990673 42.0
63.598914529 43.0
63.603838385 45.0
63.608762241 41.0
63.613686097 53.0
63.618609953 52.0
63.623533809 44.0
63.628457665 34.0
63.633381521 35.0
63.638305377 50.0
63.643229233 36.0
63.648153089 36.0
63.653076945 40.0
63.658000801 45.0
63.662924657 53.0
63.667848513 47.0
63.672772369 50.0
63.677696225 46.0
63.682620081 38.0
63.687543937 42.0
63.692467793 52.0
63.697391649 45.0
63.702315505 50.0
63.707239362 41.0
63.712163218 45.0
63.717087074 42.0
63.722010930 38.0
63.726934786 53.0
63.731858642 41.0
63.736782498 49.0
63.741706354 50.0
63.746630210 43.0
63.751554066 39.0
63.756477922 53.0
63.761401778 43.0
63.766325634 49.0
63.771249490 58.0
63.776173346 45.0
63.781097202 51.0
63.786021058 48.0
63.790944914 60.0
63.795868770 59.0
63.800792626 61.0
63.805716482 56.0
63.810640338 44.0
63.815564194 62.0
63.820488050 60.0
63.825411906 51.0
63.830335762 59.0
63.835259618 63.0
63.840183474 52.0
63.845107330 60.0
63.850031186 63.0
63.854955042 55.0
63.859878898 46.0
63.864802754 56.0
63.869726610 68.0
63.874650466 66.0
63.879574322 46.0
63.884498178 58.0
63.889422034 59.0
63.894345890 60.0
63.899269746 79.0
63.904193602 65.0
63.909117458 64.0
63.914041314 53.0
63.918965170 63.0
63.923889026 62.0
63.928812882 53.0
63.933736738 73.0
63.938660594 63.0
63.943584450 59.0
63.948508306 72.0
63.953432162 56.0
63.958356018 59.0
63.963279874 76.0
63.968203730 70.0
63.973127586 56.0
63.978051442 63.0
63.982975298 65.0
63.987899154 72.0
63.992823010 66.0
63.997746866 75.0
64.002670722 69.0
64.007594578 59.0
64.012518434 84.0
64.017442290 65.0
64.022366146 75.0
64.027290002 57.0
64.032213858 70.0
64.037137714 72.0
64.042061570 64.0
64.046985426 58.0
64.051909282 57.0
64.056833138 84.0
64.061756994 78.0
64.066680850 83.0
64.071604706 80.0
64.076528563 89.0
64.081452419 89.0
64.086376275 84.0
64.091300131 86.0
64.096223987 88.0
64.101147843 68.0
64.106071699 72.0
64.110995555 79.0
64.115919411 68.0
64.120843267 81.0
64.125767123 95.0
64.130690979 89.0
64.135614835 78.0
64.140538691 96.0
64.145462547 81.0
64.150386403 70.0
64.155310259 91.0
64.160234115 112.0
64.165157971 73.0
64.170081827 86.0
64.175005683 83.0
64.179929539 73.0
64.184853395 87.0
64.189777251 96.0
64.194701107 96.0
64.199624963 89.0
64.204548819 99.0
64.209472675 83.0
64.214396531 114.0
64.219320387 120.0
64.224244243 124.0
64.229168099 114.0
64.234091955 104.0
64.239015811 106.0
64.243939667 118.0
64.248863523 113.0
64.253787379 115.0
64.258711235 131.0
64.263635091 125.0
64.268558947 118.0
64.273482803 117.0
64.278406659 125.0
64.283330515 131.0
64.288254371 114.0
64.293178227 125.0
64.298102083 155.0
64.303025939 142.0
64.307949795 116.0
64.312873651 144.0
64.317797507 149.0
64.322721363 145.0
64.327645219 124.0
64.332569075 144.0
64.337492931 133.0
64.342416787 150.0
64.347340643 162.0
64.352264499 140.0
64.357188355 133.0
64.362112211 138.0
64.367036067 149.0
64.371959923 176.0
64.376883779 162.0
64.381807635 151.0
64.386731491 188.0
64.391655347 159.0
64.396579203 167.0
64.401503059 187.0
64.406426915 182.0
64.411350771 187.0
64.416274627 172.0
64.421198483 200.0
64.426122339 185.0
64.431046195 191.0
64.435970051 205.0
64.440893907 200.0
64.445817764 182.0
64.450741620 198.0
64.455665476 195.0
64.460589332 219.0
64.465513188 205.0
64.470437044 211.0
64.475360900 234.0
64.480284756 228.0
64.485208612 227.0
64.490132468 225.0
64.495056324 237.0
64.499980180 270.0
64.504904036 265.0
64.509827892 257.0
64.514751748 276.0
64.519675604 279.0
64.524599460 281.0
64.529523316 293.0
64.534447172 288.0
64.539371028 269.0
64.544294884 272.0
64.549218740 305.0
64.554142596 299.0
64.559066452 304.0
64.563990308 346.0
64.568914164 340.0
64.573838020 367.0
64.578761876 358.0
64.583685732 334.0
64.588609588 343.0
64.593533444 329.0
64.598457300 350.0
64.603381156 328.0
64.608305012 400.0
64.613228868 332.0
64.618152724 409.0
64.623076580 417.0
64.628000436 384.0
64.632924292 417.0
64.637848148 400.0
64.642772004 405.0
64.647695860 447.0
64.652619716 434.0
64.657543572 418.0
64.662467428 425.0
64.667391284 487.0
64.672315140 453.0
64.677238996 461.0
64.682162852 468.0
64.687086708 420.0
64.692010564 446.0
64.696934420 507.0
64.701858276 475.0
64.706782132 464.0
64.711705988 453.0
64.716629844 495.0
64.721553700 481.0
64.726477556 492.0
64.731401412 476.0
64.736325268 456.0
64.741249124 435.0
64.746172980 436.0
64.751096836 449.0
64.756020692 484.0
64.760944548 432.0
64.765868404 413.0
64.770792260 416.0
64.775716116 432.0
64.780639972 451.0
64.785563828 466.0
64.790487684 441.0
64.795411540 431.0
64.800335396 367.0
64.805259252 410.0
64.810183108 371.0
64.815106965 420.0
64.820030821 400.0
64.824954677 380.0
64.829878533 366.0
64.834802389 385.0
64.839726245 385.0
64.844650101 414.0
64.849573957 402.0
64.854497813 352.0
64.859421669 357.0
64.864345525 389.0
64.869269381 347.0
64.874193237 400.0
64.879117093 350.0
64.884040949 354.0
64.888964805 344.0
64.893888661 353.0
64.898812517 343.0
64.903736373 321.0
64.908660229 338.0
64.913584085 329.0
64.918507941 288.0
64.923431797 323.0
64.928355653 292.0
64.933279509 291.0
64.938203365 257.0
64.943127221 265.0
64.948051077 227.0
64.952974933 273.0
64.957898789 292.0
64.962822645 259.0
64.967746501 214.0
64.972670357 240.0
64.977594213 221.0
64.982518069 213.0
64.987441925 235.0
64.992365781 256.0
64.997289637 221.0
65.002213493 193.0
65.007137349 199.0
65.012061205 176.0
65.016985061 179.0
65.021908917 176.0
65.026832773 191.0
65.031756629 180.0
65.036680485 163.0
65.041604341 186.0
65.046528197 152.0
65.051452053 169.0
65.056375909 161.0
65.061299765 136.0
65.066223621 151.0
65.071147477 138.0
65.076071333 146.0
65.080995189 139.0
65.085919045 138.0
65.090842901 139.0
65.095766757 154.0
65.100690613 113.0
65.105614469 128.0
65.110538325 121.0
65.115462181 108.0
65.120386037 138.0
65.125309893 112.0
65.130233749 117.0
65.135157605 110.0
65.140081461 108.0
65.145005317 94.0
65.149929173 104.0
65.154853029 101.0
65.159776885 108.0
65.164700741 98.0
65.169624597 104.0
65.174548453 103.0
65.179472309 96.0
65.184396165 86.0
65.189320022 83.0
65.194243878 92.0
65.199167734 91.0
65.204091590 97.0
65.209015446 79.0
65.213939302 100.0
65.218863158 81.0
65.223787014 91.0
65.228710870 80.0
65.233634726 89.0
65.238558582 80.0
65.243482438 83.0
65.248406294 64.0
65.253330150 79.0
65.258254006 69.0
65.263177862 81.0
65.268101718 83.0
65.273025574 76.0
65.277949430 65.0
65.282873286 57.0
65.287797142 79.0
65.292720998 64.0
65.297644854 62.0
65.302568710 84.0
65.307492566 86.0
65.312416422 58.0
65.317340278 71.0
65.322264134 56.0
65.327187990 62.0
65.332111846 60.0
65.337035702 51.0
65.341959558 82.0
65.346883414 65.0
65.351807270 64.0
65.356731126 64.0
65.361654982 57.0
65.366578838 76.0
65.371502694 52.0
65.376426550 60.0
65.381350406 70.0
65.386274262 66.0
65.391198118 65.0
65.396121974 63.0
65.401045830 66.0
65.405969686 70.0
65.410893542 56.0
65.415817398 61.0
65.420741254 52.0
65.425665110 48.0
65.430588966 63.0
65.435512822 73.0
65.440436678 64.0
65.445360534 54.0
65.450284390 52.0
65.455208246 57.0
65.460132102 50.0
65.465055958 58.0
65.469979814 59.0
65.474903670 53.0
65.479827526 63.0
65.484751382 58.0
65.489675238 60.0
65.494599094 51.0
65.499522950 51.0
65.504446806 54.0
65.509370662 49.0
65.514294518 62.0
65.519218374 54.0
65.524142230 55.0
65.529066086 60.0
65.533989942 55.0
65.538913798 44.0
65.543837654 60.0
65.548761510 49.0
65.553685366 46.0
65.558609223 49.0
65.563533079 60.0
65.568456935 61.0
65.573380791 53.0
65.578304647 57.0
65.583228503 50.0
65.588152359 51.0
65.593076215 51.0
65.598000071 50.0
65.602923927 40.0
65.607847783 38.0
65.612771639 64.0
65.617695495 58.0
65.622619351 73.0
65.627543207 57.0
65.632467063 53.0
65.637390919 58.0
65.642314775 58.0
65.647238631 43.0
65.652162487 48.0
65.657086343 56.0
65.662010199 48.0
65.666934055 42.0
65.671857911 43.0
65.676781767 53.0
65.681705623 64.0
65.686629479 52.0
65.691553335 60.0
65.696477191 58.0
65.701401047 47.0
65.706324903 44.0
65.711248759 63.0
65.716172615 43.0
65.721096471 48.0
65.726020327 51.0
65.730944183 51.0
65.735868039 54.0
65.740791895 43.0
65.745715751 52.0
65.750639607 47.0
65.755563463 65.0
65.760487319 56.0
65.765411175 58.0
65.770335031 66.0
65.775258887 60.0
65.780182743 65.0
65.785106599 44.0
65.790030455 40.0
65.794954311 51.0
65.799878167 61.0
65.804802023 43.0
65.809725879 66.0
65.814649735 66.0
65.819573591 60.0
65.824497447 47.0
65.829421303 57.0
65.834345159 48.0
65.839269015 56.0
65.844192871 40.0
65.849116727 38.0
65.854040583 43.0
65.858964439 49.0
65.863888295 59.0
65.868812151 59.0
65.873736007 48.0
65.878659863 46.0
65.883583719 43.0
65.888507575 53.0
65.893431431 54.0
65.898355287 53.0
65.903279143 47.0
65.908202999 56.0
65.913126855 63.0
65.918050711 52.0
65.922974567 55.0
65.927898424 56.0
65.932822280 47.0
65.937746136 46.0
65.942669992 63.0
65.947593848 51.0
65.952517704 42.0
65.957441560 50.0
65.962365416 49.0
65.967289272 64.0
65.972213128 69.0
65.977136984 52.0
65.982060840 65.0
65.986984696 47.0
65.991908552 54.0
65.996832408 52.0
66.001756264 60.0
66.006680120 51.0
66.011603976 60.0
66.016527832 51.0
66.021451688 66.0
66.026375544 64.0
66.031299400 55.0
66.036223256 64.0
66.041147112 52.0
66.046070968 53.0
66.050994824 56.0
66.055918680 58.0
66.060842536 52.0
66.065766392 56.0
66.070690248 62.0
66.075614104 62.0
66.080537960 68.0
66.085461816 54.0
66.090385672 65.0
66.095309528 70.0
66.100233384 52.0
66.105157240 66.0
66.110081096 62.0
66.115004952 63.0
66.119928808 66.0
66.124852664 63.0
66.129776520 51.0
66.134700376 78.0
66.139624232 59.0
66.144548088 59.0
66.149471944 58.0
66.154395800 73.0
66.159319656 65.0
66.164243512 67.0
66.169167368 73.0
66.174091224 66.0
66.179015080 47.0
66.183938936 67.0
66.188862792 72.0
66.193786648 70.0
66.198710504 58.0
66.203634360 68.0
66.208558216 66.0
66.213482072 78.0
66.218405928 60.0
66.223329784 69.0
66.228253640 68.0
66.233177496 64.0
66.238101352 51.0
66.243025208 63.0
66.247949064 68.0
66.252872920 74.0
66.257796776 65.0
66.262720632 64.0
66.267644488 59.0
66.272568344 61.0
66.277492200 81.0
66.282416056 73.0
66.287339912 70.0
66.292263768 60.0
66.297187625 79.0
66.302111481 85.0
66.307035337 69.0
66.311959193 73.0
66.316883049 71.0
66.321806905 82.0
66.326730761 55.0
66.331654617 77.0
66.336578473 84.0
66.341502329 72.0
66.346426185 78.0
66.351350041 77.0
66.356273897 79.0
66.361197753 68.0
66.366121609 77.0
66.371045465 77.0
66.375969321 71.0
66.380893177 71.0
66.385817033 67.0
66.390740889 89.0
66.395664745 72.0
66.400588601 95.0
66.405512457 67.0
66.410436313 76.0
66.415360169 77.0
66.420284025 77.0
66.425207881 77.0
66.430131737 78.0
66.435055593 91.0
66.439979449 80.0
66.444903305 77.0
66.449827161 80.0
66.454751017 74.0
66.459674873 71.0
66.464598729 77.0
66.469522585 77.0
66.474446441 91.0
66.479370297 79.0
66.484294153 92.0
66.489218009 88.0
66.494141865 70.0
66.499065721 83.0
66.503989577 75.0
66.508913433 87.0
66.513837289 78.0
66.518761145 83.0
66.523685001 86.0
66.528608857 88.0
66.533532713 71.0
66.538456569 94.0
66.543380425 84.0
66.548304281 78.0
66.553228137 91.0
66.558151993 94.0
66.563075849 80.0
66.567999705 99.0
66.572923561 95.0
66.577847417 87.0
66.582771273 85.0
66.587695129 91.0
66.592618985 84.0
66.597542841 99.0
66.602466697 86.0
66.607390553 100.0
66.612314409 101.0
66.617238265 85.0
66.622162121 94.0
66.627085977 89.0
66.632009833 101.0
66.636933689 82.0
66.641857545 88.0
66.646781401 82.0
66.651705257 89.0
66.656629113 101.0
66.661552969 112.0
66.666476826 90.0
66.671400682 107.0
66.676324538 97.0
66.681248394 119.0
66.686172250 89.0
66.691096106 92.0
66.696019962 100.0
66.700943818 106.0
66.705867674 96.0
66.710791530 87.0
66.715715386 99.0
66.720639242 96.0
66.725563098 86.0
66.730486954 121.0
66.735410810 106.0
66.740334666 102.0
66.745258522 100.0
66.750182378 98.0
66.755106234 118.0
66.760030090 86.0
66.764953946 123.0
66.769877802 96.0
66.774801658 108.0
66.779725514 107.0
66.784649370 117.0
66.789573226 113.0
66.794497082 108.0
66.799420938 106.0
66.804344794 118.0
66.809268650 128.0
66.814192506 98.0
66.819116362 114.0
66.824040218 126.0
66.828964074 113.0
66.833887930 102.0
66.838811786 101.0
66.843735642 108.0
66.848659498 129.0
66.853583354 116.0
66.858507210 111.0
66.863431066 97.0
66.868354922 107.0
66.873278778 110.0
66.878202634 123.0
66.883126490 110.0
66.888050346 131.0
66.892974202 116.0
66.897898058 117.0
66.902821914 126.0
66.907745770 124.0
66.912669626 122.0
66.917593482 103.0
66.922517338 128.0
66.927441194 121.0
66.932365050 124.0
66.937288906 127.0
66.942212762 122.0
66.947136618 150.0
66.952060474 121.0
66.956984330 122.0
66.961908186 125.0
66.966832042 107.0
66.971755898 129.0
66.976679754 132.0
66.981603610 129.0
66.986527466 123.0
66.991451322 130.0
66.996375178 134.0
67.001299034 130.0
67.006222890 150.0
67.011146746 133.0
67.016070602 139.0
67.020994458 126.0
67.025918314 148.0
67.030842170 131.0
67.035766026 131.0
67.040689883 133.0
67.045613739 141.0
67.050537595 143.0
67.055461451 140.0
67.060385307 145.0
67.065309163 124.0
67.070233019 142.0
67.075156875 144.0
67.080080731 142.0
67.085004587 153.0
67.089928443 131.0
67.094852299 156.0
67.099776155 134.0
67.104700011 148.0
67.109623867 145.0
67.114547723 156.0
67.119471579 146.0
67.124395435 143.0
67.129319291 153.0
67.134243147 153.0
67.139167003 147.0
67.144090859 152.0
67.149014715 148.0
67.153938571 149.0
67.158862427 165.0
67.163786283 168.0
67.168710139 168.0
67.173633995 165.0
67.178557851 171.0
67.183481707 160.0
67.188405563 151.0
67.193329419 142.0
67.198253275 168.0
67.203177131 166.0
67.208100987 188.0
67.213024843 166.0
67.217948699 186.0
67.222872555 170.0
67.227796411 183.0
67.232720267 189.0
67.237644123 170.0
67.242567979 179.0
67.247491835 181.0
67.252415691 180.0
67.257339547 192.0
67.262263403 180.0
67.267187259 196.0
67.272111115 180.0
67.277034971 190.0
67.281958827 183.0
67.286882683 179.0
67.291806539 185.0
67.296730395 206.0
67.301654251 196.0
67.306578107 201.0
67.311501963 176.0
67.316425819 205.0
67.321349675 191.0
67.326273531 183.0
67.331197387 207.0
67.336121243 197.0
67.341045099 176.0
67.345968955 207.0
67.350892811 197.0
67.355816667 195.0
67.360740523 212.0
67.365664379 255.0
67.370588235 209.0
67.375512091 265.0
67.380435947 206.0
67.385359803 212.0
67.390283659 210.0
67.395207515 214.0
67.400131371 259.0
67.405055227 195.0
67.409979084 207.0
67.414902940 257.0
67.419826796 209.0
67.424750652 203.0
67.429674508 276.0
67.434598364 286.0
67.439522220 199.0
67.444446076 267.0
67.449369932 279.0
67.454293788 209.0
67.459217644 276.0
67.464141500 304.0
67.469065356 291.0
67.473989212 307.0
67.478913068 295.0
67.483836924 310.0
67.488760780 315.0
67.493684636 294.0
67.498608492 312.0
67.503532348 294.0
67.508456204 310.0
67.513380060 322.0
67.518303916 354.0
67.523227772 347.0
67.528151628 326.0
67.533075484 316.0
67.537999340 351.0
67.542923196 334.0
67.547847052 351.0
67.552770908 356.0
67.557694764 369.0
67.562618620 355.0
67.567542476 334.0
67.572466332 396.0
67.577390188 391.0
67.582314044 395.0
67.587237900 355.0
67.592161756 389.0
67.597085612 453.0
67.602009468 401.0
67.606933324 375.0
67.611857180 405.0
67.616781036 398.0
67.621704892 439.0
67.626628748 433.0
67.631552604 433.0
67.636476460 505.0
67.641400316 436.0
67.646324172 514.0
67.651248028 501.0
67.656171884 518.0
67.661095740 548.0
67.666019596 545.0
67.670943452 570.0
67.675867308 576.0
67.680791164 645.0
67.685715020 617.0
67.690638876 688.0
67.695562732 720.0
67.700486588 747.0
67.705410444 730.0
67.710334300 803.0
67.715258156 861.0
67.720182012 873.0
67.725105868 955.0
67.730029724 1011.0
67.734953580 1015.0
67.739877436 1073.0
67.744801292 1118.0
67.749725148 1245.0
67.754649004 1140.0
67.759572860 1325.0
67.764496716 1360.0
67.769420572 1423.0
67.774344428 1357.0
67.779268285 1438.0
67.784192141 1460.0
67.789115997 1432.0
67.794039853 1558.0
67.798963709 1456.0
67.803887565 1428.0
67.808811421 1508.0
67.813735277 1483.0
67.818659133 1489.0
67.823582989 1481.0
67.828506845 1428.0
67.833430701 1461.0
67.838354557 1412.0
67.843278413 1387.0
67.848202269 1431.0
67.853126125 1405.0
67.858049981 1388.0
67.862973837 1413.0
67.867897693 1412.0
67.872821549 1446.0
67.877745405 1447.0
67.882669261 1484.0
67.887593117 1479.0
67.892516973 1553.0
67.897440829 1526.0
67.902364685 1543.0
67.907288541 1617.0
67.912212397 1607.0
67.917136253 1696.0
67.922060109 1811.0
67.926983965 1763.0
67.931907821 1887.0
67.936831677 1999.0
67.941755533 2055.0
67.946679389 2075.0
67.951603245 2272.0
67.956527101 2315.0
67.961450957 2561.0
67.966374813 2647.0
67.971298669 2904.0
67.976222525 2930.0
67.981146381 3239.0
67.986070237 3445.0
67.990994093 3753.0
67.995917949 4058.0
68.000841805 4220.0
68.005765661 4746.0
68.010689517 5033.0
68.015613373 5635.0
68.020537229 6119.0
68.025461085 6944.0
68.030384941 7489.0
68.035308797 8831.0
68.040232653 9850.0
68.045156509 11273.0
68.050080365 13156.0
68.055004221 15522.0
68.059928077 18776.0
68.064851933 23261.0
68.069775789 30117.0
68.074699645 40353.0
68.079623501 55500.0
68.084547357 74907.0
68.089471213 97773.0
68.094395069 119466.0
68.099318925 134514.0
68.104242781 146880.0
68.109166637 153593.0
68.114090493 158169.0
68.119014349 158015.0
68.123938205 154039.0
68.128862061 144524.0
68.133785917 128248.0
68.138709773 106697.0
68.143633629 84903.0
68.148557486 65545.0
68.153481342 51391.0
68.158405198 40745.0
68.163329054 32104.0
68.168252910 26130.0
68.173176766 21100.0
68.178100622 17867.0
68.183024478 14760.0
68.187948334 12879.0
68.192872190 11243.0
68.197796046 10388.0
68.202719902 9255.0
68.207643758 8537.0
68.212567614 8296.0
68.217491470 7915.0
68.222415326 8043.0
68.227339182 8091.0
68.232263038 8450.0
68.237186894 8987.0
68.242110750 9866.0
68.247034606 10936.0
68.251958462 12889.0
68.256882318 15061.0
68.261806174 18368.0
68.266730030 23357.0
68.271653886 29922.0
68.276577742 38284.0
68.281501598 48351.0
68.286425454 57810.0
68.291349310 65952.0
68.296273166 71718.0
68.301197022 76415.0
68.306120878 78490.0
68.311044734 78976.0
68.315968590 76924.0
68.320892446 73478.0
68.325816302 65689.0
68.330740158 57893.0
68.335664014 47388.0
68.340587870 38324.0
68.345511726 30651.0
68.350435582 23989.0
68.355359438 19174.0
68.360283294 15069.0
68.365207150 12612.0
68.370131006 10332.0
68.375054862 8840.0
68.379978718 7531.0
68.384902574 6430.0
68.389826430 5717.0
68.394750286 5037.0
68.399674142 4658.0
68.404597998 4136.0
68.409521854 3766.0
68.414445710 3405.0
68.419369566 3163.0
68.424293422 2988.0
68.429217278 2757.0
68.434141134 2575.0
68.439064990 2417.0
68.443988846 2330.0
68.448912702 2205.0
68.453836558 2207.0
68.458760414 2045.0
68.463684270 1892.0
68.468608126 1808.0
68.473531982 1799.0
68.478455838 1737.0
68.483379694 1703.0
68.488303550 1651.0
68.493227406 1564.0
68.498151262 1483.0
68.503075118 1420.0
68.507998974 1457.0
68.512922830 1312.0
68.517846687 1301.0
68.522770543 1265.0
68.527694399 1223.0
68.532618255 1196.0
68.537542111 1181.0
68.542465967 1102.0
68.547389823 1104.0
68.552313679 1022.0
68.557237535 1063.0
68.562161391 1002.0
68.567085247 979.0
68.572009103 931.0
68.576932959 936.0
68.581856815 872.0
68.586780671 911.0
68.591704527 900.0
68.596628383 856.0
68.601552239 854.0
68.606476095 825.0
68.611399951 826.0
68.616323807 787.0
68.621247663 776.0
68.626171519 757.0
68.631095375 734.0
68.636019231 761.0
68.640943087 709.0
68.645866943 722.0
68.650790799 722.0
68.655714655 717.0
68.660638511 669.0
68.665562367 654.0
68.670486223 617.0
68.675410079 679.0
68.680333935 601.0
68.685257791 610.0
68.690181647 609.0
68.695105503 559.0
68.700029359 608.0
68.704953215 561.0
68.709877071 581.0
68.714800927 550.0
68.719724783 582.0
68.724648639 526.0
68.729572495 533.0
68.734496351 540.0
68.739420207 554.0
68.744344063 535.0
68.749267919 469.0
68.754191775 485.0
68.759115631 521.0
68.764039487 481.0
68.768963343 507.0
68.773887199 455.0
68.778811055 476.0
68.783734911 471.0
68.788658767 451.0
68.793582623 468.0
68.798506479 428.0
68.803430335 432.0
68.808354191 417.0
68.813278047 427.0
68.818201903 404.0
68.823125759 439.0
68.828049615 429.0
68.832973471 382.0
68.837897327 420.0
68.842821183 380.0
68.847745039 391.0
68.852668895 388.0
68.857592751 380.0
68.862516607 395.0
68.867440463 389.0
68.872364319 388.0
68.877288175 373.0
68.882212031 358.0
68.887135887 329.0
68.892059744 373.0
68.896983600 340.0
68.901907456 349.0
68.906831312 363.0
68.911755168 341.0
68.916679024 337.0
68.921602880 347.0
68.926526736 336.0
68.931450592 300.0
68.936374448 313.0
68.941298304 304.0
68.946222160 354.0
68.951146016 325.0
68.956069872 308.0
68.960993728 302.0
68.965917584 334.0
68.970841440 294.0
68.975765296 328.0
68.980689152 318.0
68.985613008 294.0
68.990536864 319.0
68.995460720 314.0
69.000384576 328.0
69.005308432 283.0
69.010232288 292.0
69.015156144 288.0
69.020080000 282.0
69.025003856 281.0
69.029927712 301.0
69.034851568 304.0
69.039775424 282.0
69.044699280 302.0
69.049623136 276.0
69.054546992 277.0
69.059470848 277.0
69.064394704 296.0
69.069318560 283.0
69.074242416 212.0
69.079166272 216.0
69.084090128 260.0
69.089013984 192.0
69.093937840 267.0
69.098861696 208.0
69.103785552 205.0
69.108709408 210.0
69.113633264 207.0
69.118557120 196.0
69.123480976 206.0
69.128404832 260.0
69.133328688 193.0
69.138252544 195.0
69.143176400 258.0
69.148100256 171.0
69.153024112 190.0
69.157947968 208.0
69.162871824 200.0
69.167795680 214.0
69.172719536 187.0
69.177643392 255.0
69.182567248 177.0
69.187491104 162.0
69.192414960 182.0
69.197338816 190.0
69.202262672 174.0
69.207186528 193.0
69.212110384 162.0
69.217034240 180.0
69.221958096 168.0
69.226881952 166.0
69.231805808 184.0
69.236729664 164.0
69.241653520 170.0
69.246577376 154.0
69.251501232 150.0
69.256425088 177.0
69.261348945 180.0
69.266272801 173.0
69.271196657 173.0
69.276120513 162.0
69.281044369 165.0
69.285968225 169.0
69.290892081 148.0
69.295815937 161.0
69.300739793 163.0
69.305663649 168.0
69.310587505 153.0
69.315511361 162.0
69.320435217 168.0
69.325359073 145.0
69.330282929 143.0
69.335206785 154.0
69.340130641 151.0
69.345054497 151.0
69.349978353 136.0
69.354902209 152.0
69.359826065 146.0
69.364749921 128.0
69.369673777 139.0
69.374597633 148.0
69.379521489 160.0
69.384445345 103.0
69.389369201 134.0
69.394293057 139.0
69.399216913 159.0
69.404140769 164.0
69.409064625 120.0
69.413988481 116.0
69.418912337 148.0
69.423836193 126.0
69.428760049 134.0
69.433683905 124.0
69.438607761 140.0
69.443531617 115.0
69.448455473 115.0
69.453379329 131.0
69.458303185 118.0
69.463227041 129.0
69.468150897 118.0
69.473074753 109.0
69.477998609 132.0
69.482922465 119.0
69.487846321 116.0
69.492770177 132.0
69.497694033 124.0
69.502617889 106.0
69.507541745 120.0
69.512465601 123.0
69.517389457 118.0
69.522313313 123.0
69.527237169 109.0
69.532161025 100.0
69.537084881 111.0
69.542008737 87.0
69.546932593 114.0
69.551856449 80.0
69.556780305 108.0
69.561704161 124.0
69.566628017 101.0
69.571551873 106.0
69.576475729 88.0
69.581399585 98.0
69.586323441 115.0
69.591247297 96.0
69.596171153 106.0
69.601095009 105.0
69.606018865 114.0
69.610942721 101.0
69.615866577 98.0
69.620790433 97.0
69.625714289 92.0
69.630638146 112.0
69.635562002 113.0
69.640485858 101.0
69.645409714 101.0
69.650333570 87.0
69.655257426 93.0
69.660181282 97.0
69.665105138 92.0
69.670028994 93.0
69.674952850 84.0
69.679876706 82.0
69.684800562 74.0
69.689724418 84.0
69.694648274 91.0
69.699572130 82.0
69.704495986 89.0
69.709419842 101.0
69.714343698 72.0
69.719267554 81.0
69.724191410 70.0
69.729115266 77.0
69.734039122 84.0
69.738962978 84.0
69.743886834 77.0
69.748810690 98.0
69.753734546 78.0
69.758658402 97.0
69.763582258 80.0
69.768506114 86.0
69.773429970 74.0
69.778353826 69.0
69.783277682 76.0
69.788201538 69.0
69.793125394 79.0
69.798049250 89.0
69.802973106 94.0
69.807896962 64.0
69.812820818 54.0
69.817744674 66.0
69.822668530 68.0
69.827592386 69.0
69.832516242 84.0
69.837440098 72.0
69.842363954 77.0
69.847287810 63.0
69.852211666 63.0
69.857135522 63.0
69.862059378 59.0
69.866983234 67.0
69.871907090 72.0
69.876830946 65.0
69.881754802 91.0
69.886678658 64.0
69.891602514 75.0
69.896526370 79.0
69.901450226 67.0
69.906374082 61.0
69.911297938 63.0
69.916221794 66.0
69.921145650 66.0
69.926069506 59.0
69.930993362 62.0
69.935917218 57.0
69.940841074 56.0
69.945764930 70.0
69.950688786 52.0
69.955612642 56.0
69.960536498 68.0
69.965460354 60.0
69.970384210 58.0
69.975308066 64.0
69.980231922 80.0
69.985155778 60.0
69.990079634 59.0
69.995003490 63.0
69.999927347 54.0
70.004851203 64.0
70.009775059 56.0
70.014698915 71.0
70.019622771 65.0
70.024546627 69.0
70.029470483 55.0
70.034394339 51.0
70.039318195 63.0
70.044242051 45.0
70.049165907 65.0
70.054089763 48.0
70.059013619 51.0
70.063937475 62.0
70.068861331 46.0
70.073785187 48.0
70.078709043 48.0
70.083632899 41.0
70.088556755 51.0
70.093480611 43.0
70.098404467 37.0
70.103328323 47.0
70.108252179 68.0
70.113176035 42.0
70.118099891 53.0
70.123023747 60.0
70.127947603 56.0
70.132871459 50.0
70.137795315 48.0
70.142719171 56.0
70.147643027 49.0
70.152566883 45.0
70.157490739 44.0
70.162414595 50.0
70.167338451 40.0
70.172262307 46.0
70.177186163 40.0
70.182110019 46.0
70.187033875 37.0
70.191957731 51.0
70.196881587 48.0
70.201805443 36.0
70.206729299 46.0
70.211653155 45.0
70.216577011 41.0
70.221500867 48.0
70.226424723 35.0
70.231348579 49.0
70.236272435 44.0
70.241196291 46.0
70.246120147 27.0
70.251044003 36.0
70.255967859 23.0
70.260891715 40.0
70.265815571 46.0
70.270739427 44.0
70.275663283 36.0
70.280587139 44.0
70.285510995 41.0
70.290434851 36.0
70.295358707 37.0
70.300282563 38.0
70.305206419 49.0
70.310130275 47.0
70.315054131 44.0
70.319977987 34.0
70.324901843 40.0
70.329825699 44.0
70.334749555 40.0
70.339673411 29.0
70.344597267 37.0
70.349521123 44.0
70.354444979 29.0
70.359368835 43.0
70.364292691 28.0
70.369216548 29.0
70.374140404 39.0
70.379064260 41.0
70.383988116 48.0
70.388911972 42.0
70.393835828 30.0
70.398759684 31.0
70.403683540 37.0
70.408607396 31.0
70.413531252 36.0
70.418455108 48.0
70.423378964 35.0
70.428302820 38.0
70.433226676 29.0
70.438150532 29.0
70.443074388 35.0
70.447998244 29.0
70.452922100 39.0
70.457845956 38.0
70.462769812 46.0
70.467693668 38.0
70.472617524 39.0
70.477541380 27.0
70.482465236 29.0
70.487389092 34.0
70.492312948 35.0
70.497236804 32.0
70.502160660 25.0
70.507084516 44.0
70.512008372 37.0
70.516932228 32.0
70.521856084 28.0
70.526779940 34.0
70.531703796 37.0
70.536627652 24.0
70.541551508 35.0
70.546475364 35.0
70.551399220 31.0
70.556323076 40.0
70.561246932 40.0
70.566170788 27.0
70.571094644 29.0
70.576018500 35.0
70.580942356 40.0
70.585866212 33.0
70.590790068 31.0
70.595713924 32.0
70.600637780 35.0
70.605561636 26.0
70.610485492 34.0
70.615409348 36.0
70.620333204 26.0
70.625257060 33.0
70.630180916 25.0
70.635104772 32.0
70.640028628 34.0
70.644952484 30.0
70.649876340 32.0
70.654800196 29.0
70.659724052 35.0
70.664647908 23.0
70.669571764 19.0
70.674495620 42.0
70.679419476 38.0
70.684343332 31.0
70.689267188 31.0
70.694191044 27.0
70.699114900 33.0
70.704038756 38.0
70.708962612 32.0
70.713886468 25.0
70.718810324 23.0
70.723734180 33.0
70.728658036 32.0
70.733581892 29.0
70.738505748 28.0
70.743429605 32.0
70.748353461 25.0
70.753277317 35.0
70.758201173 31.0
70.763125029 33.0
70.768048885 27.0
70.772972741 30.0
70.777896597 31.0
70.782820453 26.0
70.787744309 25.0
70.792668165 29.0
70.797592021 42.0
70.802515877 21.0
70.807439733 28.0
70.812363589 27.0
70.817287445 35.0
70.822211301 22.0
70.827135157 33.0
70.832059013 31.0
70.836982869 19.0
70.841906725 26.0
70.846830581 27.0
70.851754437 29.0
70.856678293 31.0
70.861602149 29.0
70.866526005 35.0
70.871449861 23.0
70.876373717 25.0
70.881297573 22.0
70.886221429 27.0
70.891145285 29.0
70.896069141 24.0
70.900992997 28.0
70.905916853 29.0
70.910840709 27.0
70.915764565 28.0
70.920688421 35.0
70.925612277 26.0
70.930536133 28.0
70.935459989 23.0
70.940383845 24.0
70.945307701 33.0
70.950231557 21.0
70.955155413 21.0
70.960079269 17.0
70.965003125 31.0
70.969926981 25.0
70.974850837 30.0
70.979774693 34.0
70.984698549 34.0
70.989622405 22.0
70.994546261 20.0
70.999470117 27.0
71.004393973 28.0
71.009317829 20.0
71.014241685 25.0
71.019165541 29.0
71.024089397 28.0
71.029013253 20.0
71.033937109 36.0
71.038860965 26.0
71.043784821 22.0
71.048708677 22.0
71.053632533 14.0
71.058556389 20.0
71.063480245 33.0
71.068404101 28.0
71.073327957 22.0
71.078251813 32.0
71.083175669 37.0
71.088099525 18.0
71.093023381 22.0
71.097947237 18.0
71.102871093 26.0
71.107794949 25.0
71.112718806 35.0
71.117642662 25.0
71.122566518 30.0
71.127490374 23.0
71.132414230 23.0
71.137338086 20.0
71.142261942 26.0
71.147185798 30.0
71.152109654 40.0
71.157033510 25.0
71.161957366 25.0
71.166881222 29.0
71.171805078 22.0
71.176728934 26.0
71.181652790 31.0
71.186576646 29.0
71.191500502 20.0
71.196424358 21.0
71.201348214 31.0
71.206272070 23.0
71.211195926 22.0
71.216119782 35.0
71.221043638 23.0
71.225967494 41.0
71.230891350 17.0
71.235815206 20.0
71.240739062 33.0
71.245662918 21.0
71.250586774 19.0
71.255510630 24.0
71.260434486 18.0
71.265358342 26.0
71.270282198 17.0
71.275206054 19.0
71.280129910 22.0
71.285053766 20.0
71.289977622 24.0
71.294901478 26.0
71.299825334 21.0
71.304749190 15.0
71.309673046 19.0
71.314596902 24.0
71.319520758 26.0
71.324444614 20.0
71.329368470 25.0
71.334292326 23.0
71.339216182 23.0
71.344140038 17.0
71.349063894 19.0
71.353987750 17.0
71.358911606 23.0
71.363835462 17.0
71.368759318 12.0
71.373683174 23.0
71.378607030 25.0
71.383530886 25.0
71.388454742 29.0
71.393378598 26.0
71.398302454 25.0
71.403226310 15.0
71.408150166 28.0
71.413074022 26.0
71.417997878 26.0
71.422921734 23.0
71.427845590 23.0
71.432769446 22.0
71.437693302 22.0
71.442617158 24.0
71.447541014 25.0
71.452464870 20.0
71.457388726 15.0
71.462312582 26.0
71.467236438 16.0
71.472160294 16.0
71.477084150 20.0
71.482008007 19.0
71.486931863 23.0
71.491855719 29.0
71.496779575 15.0
71.501703431 19.0
71.506627287 21.0
71.511551143 19.0
71.516474999 25.0
71.521398855 19.0
71.526322711 18.0
71.531246567 33.0
71.536170423 25.0
71.541094279 12.0
71.546018135 18.0
71.550941991 16.0
71.555865847 19.0
71.560789703 25.0
71.565713559 27.0
71.570637415 20.0
71.575561271 13.0
71.580485127 11.0
71.585408983 22.0
71.590332839 25.0
71.595256695 17.0
71.600180551 19.0
71.605104407 23.0
71.610028263 28.0
71.614952119 20.0
71.619875975 18.0
71.624799831 19.0
71.629723687 14.0
71.634647543 12.0
71.639571399 22.0
71.644495255 24.0
71.649419111 24.0
71.654342967 28.0
71.659266823 25.0
71.664190679 23.0
71.669114535 26.0
71.674038391 23.0
71.678962247 22.0
71.683886103 16.0
71.688809959 23.0
71.693733815 16.0
71.698657671 16.0
71.703581527 26.0
71.708505383 9.0
71.713429239 18.0
71.718353095 19.0
71.723276951 19.0
71.728200807 18.0
71.733124663 19.0
71.738048519 12.0
71.742972375 17.0
71.747896231 20.0
71.752820087 23.0
71.757743943 23.0
71.762667799 22.0
71.767591655 24.0
71.772515511 19.0
71.777439367 15.0
71.782363223 17.0
71.787287079 22.0
71.792210935 13.0
71.797134791 18.0
71.802058647 24.0
71.806982503 20.0
71.811906359 18.0
71.816830215 21.0
71.821754071 21.0
71.826677927 15.0
71.831601783 16.0
71.836525639 20.0
71.841449495 14.0
71.846373351 15.0
71.851297208 13.0
71.856221064 17.0
71.861144920 16.0
71.866068776 16.0
71.870992632 15.0
71.875916488 18.0
71.880840344 12.0
71.885764200 14.0
71.890688056 16.0
71.895611912 19.0
71.900535768 17.0
71.905459624 20.0
71.910383480 17.0
71.915307336 12.0
71.920231192 13.0
71.925155048 19.0
71.930078904 18.0
71.935002760 14.0
71.939926616 21.0
71.944850472 17.0
71.949774328 28.0
71.954698184 20.0
71.959622040 16.0
71.964545896 9.0
71.969469752 22.0
71.974393608 20.0
71.979317464 19.0
71.984241320 21.0
71.989165176 18.0
71.994089032 11.0
71.999012888 15.0
72.003936744 17.0
72.008860600 19.0
72.013784456 10.0
72.018708312 18.0
72.023632168 16.0
72.028556024 23.0
72.033479880 20.0
72.038403736 18.0
72.043327592 16.0
72.048251448 17.0
72.053175304 15.0
72.058099160 22.0
72.063023016 12.0
72.067946872 24.0
72.072870728 16.0
72.077794584 12.0
72.082718440 11.0
72.087642296 11.0
72.092566152 15.0
72.097490008 16.0
72.102413864 17.0
72.107337720 16.0
72.112261576 26.0
72.117185432 19.0
72.122109288 24.0
72.127033144 16.0
72.131957000 25.0
72.136880856 22.0
72.141804712 20.0
72.146728568 13.0
72.151652424 7.0
72.156576280 13.0
72.161500136 12.0
72.166423992 20.0
72.171347848 13.0
72.176271704 17.0
72.181195560 16.0
72.186119416 17.0
72.191043272 19.0
72.195967128 21.0
72.200890984 13.0
72.205814840 14.0
72.210738696 16.0
72.215662552 15.0
72.220586409 23.0
72.225510265 18.0
72.230434121 15.0
72.235357977 27.0
72.240281833 27.0
72.245205689 14.0
72.250129545 14.0
72.255053401 15.0
72.259977257 19.0
72.264901113 12.0
72.269824969 13.0
72.274748825 27.0
72.279672681 18.0
72.284596537 17.0
72.289520393 16.0
72.294444249 15.0
72.299368105 24.0
72.304291961 11.0
72.309215817 11.0
72.314139673 24.0
72.319063529 13.0
72.323987385 21.0
72.328911241 18.0
72.333835097 18.0
72.338758953 12.0
72.343682809 18.0
72.348606665 14.0
72.353530521 13.0
72.358454377 14.0
72.363378233 19.0
72.368302089 4.0
72.373225945 20.0
72.378149801 23.0
72.383073657 12.0
72.387997513 19.0
72.392921369 21.0
72.397845225 12.0
72.402769081 16.0
72.407692937 15.0
72.412616793 15.0
72.417540649 17.0
72.422464505 18.0
72.427388361 22.0
72.432312217 19.0
72.437236073 13.0
72.442159929 15.0
72.447083785 15.0
72.452007641 16.0
72.456931497 11.0
72.461855353 19.0
72.466779209 19.0
72.471703065 23.0
72.476626921 20.0
72.481550777 13.0
72.486474633 15.0
72.491398489 17.0
72.496322345 23.0
72.501246201 12.0
72.506170057 21.0
72.511093913 21.0
72.516017769 17.0
72.520941625 16.0
72.525865481 13.0
72.530789337 20.0
72.535713193 16.0
72.540637049 14.0
72.545560905 14.0
72.550484761 23.0
72.555408617 24.0
72.560332473 9.0
72.565256329 11.0
72.570180185 15.0
72.575104041 16.0
72.580027897 11.0
72.584951753 12.0
72.589875609 18.0
72.594799466 15.0
72.599723322 7.0
72.604647178 15.0
72.609571034 11.0
72.614494890 5.0
72.619418746 13.0
72.624342602 21.0
72.629266458 10.0
72.634190314 13.0
72.639114170 21.0
72.644038026 9.0
72.648961882 21.0
72.653885738 18.0
72.658809594 24.0
72.663733450 18.0
72.668657306 20.0
72.673581162 12.0
72.678505018 16.0
72.683428874 17.0
72.688352730 13.0
72.693276586 16.0
72.698200442 8.0
72.703124298 23.0
72.708048154 15.0
72.712972010 13.0
72.717895866 11.0
72.722819722 13.0
72.727743578 14.0
72.732667434 13.0
72.737591290 16.0
72.742515146 18.0
72.747439002 15.0
72.752362858 23.0
72.757286714 15.0
72.762210570 14.0
72.767134426 19.0
72.772058282 17.0
72.776982138 17.0
72.781905994 20.0
72.786829850 12.0
72.791753706 12.0
72.796677562 21.0
72.801601418 16.0
72.806525274 19.0
72.811449130 17.0
72.816372986 14.0
72.821296842 13.0
72.826220698 11.0
72.831144554 13.0
72.836068410 14.0
72.840992266 17.0
72.845916122 10.0
72.850839978 21.0
72.855763834 16.0
72.860687690 16.0
72.865611546 8.0
72.870535402 16.0
72.875459258 14.0
72.880383114 14.0
72.885306970 14.0
72.890230826 17.0
72.895154682 10.0
72.900078538 17.0
72.905002394 16.0
72.909926250 14.0
72.914850106 15.0
72.919773962 18.0
72.924697818 19.0
72.929621674 16.0
72.934545530 14.0
72.939469386 13.0
72.944393242 12.0
72.949317098 24.0
72.954240954 17.0
72.959164810 12.0
72.964088667 19.0
72.969012523 14.0
72.973936379 15.0
72.978860235 14.0
72.983784091 9.0
72.988707947 11.0
72.993631803 15.0
72.998555659 16.0
73.003479515 14.0
73.008403371 18.0
73.013327227 12.0
73.018251083 13.0
73.023174939 13.0
73.028098795 9.0
73.033022651 7.0
73.037946507 15.0
73.042870363 21.0
73.047794219 15.0
73.052718075 9.0
73.057641931 23.0
73.062565787 10.0
73.067489643 10.0
73.072413499 10.0
73.077337355 21.0
73.082261211 18.0
73.087185067 15.0
73.092108923 10.0
73.097032779 17.0
73.101956635 15.0
73.106880491 11.0
73.111804347 12.0
73.116728203 14.0
73.121652059 9.0
73.126575915 17.0
73.131499771 16.0
73.136423627 9.0
73.141347483 17.0
73.146271339 15.0
73.151195195 12.0
73.156119051 13.0
73.161042907 11.0
73.165966763 23.0
73.170890619 9.0
73.175814475 17.0
73.180738331 16.0
73.185662187 11.0
73.190586043 11.0
73.195509899 3.0
73.200433755 15.0
73.205357611 21.0
73.210281467 17.0
73.215205323 12.0
73.220129179 16.0
73.225053035 16.0
73.229976891 10.0
73.234900747 13.0
73.239824603 13.0
73.244748459 19.0
73.249672315 15.0
73.254596171 13.0
73.259520027 13.0
73.264443883 12.0
73.269367739 15.0
73.274291595 11.0
73.279215451 19.0
73.284139307 11.0
73.289063163 17.0
73.293987019 14.0
73.298910875 19.0
73.303834731 11.0
73.308758587 11.0
73.313682443 12.0
73.318606299 16.0
73.323530155 13.0
73.328454011 9.0
73.333377868 11.0
73.338301724 17.0
73.343225580 19.0
73.348149436 11.0
73.353073292 12.0
73.357997148 12.0
73.362921004 7.0
73.367844860 12.0
73.372768716 14.0
73.377692572 14.0
73.382616428 10.0
73.387540284 13.0
73.392464140 11.0
73.397387996 12.0
73.402311852 17.0
73.407235708 11.0
73.412159564 6.0
73.417083420 14.0
73.422007276 16.0
73.426931132 11.0
73.431854988 20.0
73.436778844 13.0
73.441702700 10.0
73.446626556 17.0
73.451550412 11.0
73.456474268 13.0
73.461398124 13.0
73.466321980 18.0
73.471245836 9.0
73.476169692 13.0
73.481093548 11.0
73.486017404 13.0
73.490941260 23.0
73.495865116 11.0
73.500788972 18.0
73.505712828 18.0
73.510636684 10.0
73.515560540 16.0
73.520484396 17.0
73.525408252 11.0
73.530332108 6.0
73.535255964 17.0
73.540179820 16.0
73.545103676 15.0
73.550027532 14.0
73.554951388 11.0
73.559875244 22.0
73.564799100 17.0
73.569722956 11.0
73.574646812 10.0
73.579570668 13.0
73.584494524 5.0
73.589418380 9.0
73.594342236 17.0
73.599266092 8.0
73.604189948 11.0
73.609113804 7.0
73.614037660 11.0
73.618961516 15.0
73.623885372 8.0
73.628809228 17.0
73.633733084 10.0
73.638656940 13.0
73.643580796 20.0
73.648504652 9.0
73.653428508 17.0
73.658352364 7.0
73.663276220 10.0
73.668200076 15.0
73.673123932 12.0
73.678047788 14.0
73.682971644 12.0
73.687895500 15.0
73.692819356 16.0
73.697743212 9.0
73.702667069 12.0
73.707590925 15.0
73.712514781 11.0
73.717438637 16.0
73.722362493 14.0
73.727286349 24.0
73.732210205 6.0
73.737134061 15.0
73.742057917 14.0
73.746981773 13.0
73.751905629 15.0
73.756829485 12.0
73.761753341 17.0
73.766677197 13.0
73.771601053 15.0
73.776524909 10.0
73.781448765 12.0
73.786372621 13.0
73.791296477 14.0
73.796220333 17.0
73.801144189 14.0
73.806068045 11.0
73.810991901 13.0
73.815915757 12.0
73.820839613 8.0
73.825763469 12.0
73.830687325 9.0
73.835611181 8.0
73.840535037 15.0
73.845458893 14.0
73.850382749 18.0
73.855306605 14.0
73.860230461 17.0
73.865154317 18.0
73.870078173 20.0
73.875002029 17.0
73.879925885 5.0
73.884849741 11.0
73.889773597 11.0
73.894697453 9.0
73.899621309 14.0
73.904545165 10.0
73.909469021 14.0
73.914392877 8.0
73.919316733 17.0
73.924240589 16.0
73.929164445 18.0
73.934088301 7.0
73.939012157 15.0
73.943936013 11.0
73.948859869 16.0
73.953783725 4.0
73.958707581 18.0
73.963631437 17.0
73.968555293 9.0
73.973479149 14.0
73.978403005 18.0
73.983326861 12.0
73.988250717 13.0
73.993174573 12.0
73.998098429 7.0
74.003022285 11.0
74.007946141 21.0
74.012869997 14.0
74.017793853 10.0
74.022717709 8.0
74.027641565 6.0
74.032565421 9.0
74.037489277 9.0
74.042413133 9.0
74.047336989 12.0
74.052260845 9.0
74.057184701 9.0
74.062108557 17.0
74.067032413 11.0
74.071956270 17.0
74.076880126 11.0
74.081803982 12.0
74.086727838 8.0
74.091651694 24.0
74.096575550 14.0
74.101499406 7.0
74.106423262 15.0
74.111347118 13.0
74.116270974 12.0
74.121194830 14.0
74.126118686 11.0
74.131042542 13.0
74.135966398 15.0
74.140890254 10.0
74.145814110 20.0
74.150737966 13.0
74.155661822 17.0
74.160585678 18.0
74.165509534 10.0
74.170433390 8.0
74.175357246 6.0
74.180281102 16.0
74.185204958 11.0
74.190128814 10.0
74.195052670 12.0
74.199976526 13.0
74.204900382 15.0
74.209824238 11.0
74.214748094 17.0
74.219671950 10.0
74.224595806 10.0
74.229519662 12.0
74.234443518 8.0
74.239367374 9.0
74.244291230 8.0
74.249215086 14.0
74.254138942 9.0
74.259062798 7.0
74.263986654 13.0
74.268910510 16.0
74.273834366 19.0
74.278758222 10.0
74.283682078 11.0
74.288605934 16.0
74.293529790 16.0
74.298453646 12.0
74.303377502 13.0
74.308301358 12.0
74.313225214 8.0
74.318149070 7.0
74.323072926 13.0
74.327996782 9.0
74.332920638 11.0
74.337844494 10.0
74.342768350 10.0
74.347692206 1.0
74.352616062 6.0
74.357539918 17.0
74.362463774 8.0
74.367387630 11.0
74.372311486 12.0
74.377235342 14.0
74.382159198 17.0
74.387083054 10.0
74.392006910 12.0
74.396930766 17.0
74.401854622 14.0
74.406778478 17.0
74.411702334 12.0
74.416626190 8.0
74.421550046 14.0
74.426473902 11.0
74.431397758 10.0
74.436321614 12.0
74.441245470 11.0
74.446169327 13.0
74.451093183 11.0
74.456017039 14.0
74.460940895 13.0
74.465864751 18.0
74.470788607 8.0
74.475712463 9.0
74.480636319 18.0
74.485560175 11.0
74.490484031 9.0
74.495407887 15.0
74.500331743 15.0
74.505255599 13.0
74.510179455 9.0
74.515103311 10.0
74.520027167 15.0
74.524951023 17.0
74.529874879 15.0
74.534798735 9.0
74.539722591 21.0
74.544646447 6.0
74.549570303 17.0
74.554494159 12.0
74.559418015 13.0
74.564341871 22.0
74.569265727 12.0
74.574189583 10.0
74.579113439 15.0
74.584037295 16.0
74.588961151 11.0
74.593885007 10.0
74.598808863 13.0
74.603732719 10.0
74.608656575 10.0
74.613580431 12.0
74.618504287 6.0
74.623428143 11.0
74.628351999 16.0
74.633275855 13.0
74.638199711 12.0
74.643123567 14.0
74.648047423 8.0
74.652971279 14.0
74.657895135 10.0
74.662818991 8.0
74.667742847 15.0
74.672666703 14.0
74.677590559 8.0
74.682514415 5.0
74.687438271 12.0
74.692362127 17.0
74.697285983 11.0
74.702209839 11.0
74.707133695 9.0
74.712057551 14.0
74.716981407 15.0
74.721905263 14.0
74.726829119 13.0
74.731752975 9.0
74.736676831 6.0
74.741600687 8.0
74.746524543 14.0
74.751448399 6.0
74.756372255 3.0
74.761296111 7.0
74.766219967 11.0
74.771143823 13.0
74.776067679 13.0
74.780991535 13.0
74.785915391 18.0
74.790839247 9.0
74.795763103 8.0
74.800686959 11.0
74.805610815 9.0
74.810534671 15.0
74.815458528 10.0
74.820382384 8.0
74.825306240 7.0
74.830230096 15.0
74.835153952 16.0
74.840077808 6.0
74.845001664 11.0
74.849925520 12.0
74.854849376 11.0
74.859773232 10.0
74.864697088 12.0
74.869620944 4.0
74.874544800 8.0
74.879468656 12.0
74.884392512 21.0
74.889316368 9.0
74.894240224 11.0
74.899164080 11.0
74.904087936 20.0
74.909011792 13.0
74.913935648 5.0
74.918859504 20.0
74.923783360 8.0
74.928707216 6.0
74.933631072 18.0
74.938554928 16.0
74.943478784 12.0
74.948402640 11.0
74.953326496 7.0
74.958250352 9.0
74.963174208 12.0
74.968098064 16.0
74.973021920 14.0
74.977945776 12.0
74.982869632 21.0
74.987793488 16.0
74.992717344 9.0
74.997641200 16.0
