55.001861930 12.0
55.006785786 13.0
55.011709642 10.0
55.016633498 13.0
55.021557354 10.0
55.026481210 5.0
55.031405066 15.0
55.036328922 14.0
55.041252778 10.0
55.046176634 6.0
55.051100490 9.0
55.056024346 12.0
55.060948202 7.0
55.065872058 14.0
55.070795914 14.0
55.075719770 8.0
55.080643626 9.0
55.085567482 10.0
55.090491338 12.0
55.095415194 12.0
55.100339050 20.0
55.105262906 5.0
55.110186762 12.0
55.115110618 11.0
55.120034474 9.0
55.124958330 13.0
55.129882186 10.0
55.134806042 9.0
55.139729898 9.0
55.144653754 10.0
55.149577610 12.0
55.154501466 8.0
55.159425322 11.0
55.164349178 5.0
55.169273034 12.0
55.174196890 8.0
55.179120746 7.0
55.184044602 8.0
55.188968459 14.0
55.193892315 8.0
55.198816171 8.0
55.203740027 13.0
55.208663883 9.0
55.213587739 4.0
55.218511595 6.0
55.223435451 10.0
55.228359307 15.0
55.233283163 7.0
55.238207019 17.0
55.243130875 13.0
55.248054731 11.0
55.252978587 13.0
55.257902443 9.0
55.262826299 13.0
55.267750155 11.0
55.272674011 10.0
55.277597867 11.0
55.282521723 13.0
55.287445579 12.0
55.292369435 5.0
55.297293291 13.0
55.302217147 6.0
55.307141003 15.0
55.312064859 20.0
55.316988715 10.0
55.321912571 10.0
55.326836427 6.0
55.331760283 10.0
55.336684139 14.0
55.341607995 10.0
55.346531851 5.0
55.351455707 10.0
55.356379563 5.0
55.361303419 9.0
55.366227275 7.0
55.371151131 6.0
55.376074987 10.0
55.380998843 9.0
55.385922699 14.0
55.390846555 6.0
55.395770411 8.0
55.400694267 13.0
55.405618123 13.0
55.410541979 16.0
55.415465835 12.0
55.420389691 12.0
55.425313547 13.0
55.430237403 14.0
55.435161259 12.0
55.440085115 11.0
55.445008971 6.0
55.449932827 7.0
55.454856683 13.0
55.459780539 17.0
55.464704395 12.0
55.469628251 10.0
55.474552107 12.0
55.479475963 5.0
55.484399819 8.0
55.489323675 17.0
55.494247531 7.0
55.499171387 5.0
55.504095243 16.0
55.509019099 8.0
55.513942955 10.0
55.518866811 9.0
55.523790667 15.0
55.528714523 15.0
55.533638379 15.0
55.538562235 7.0
55.543486091 8.0
55.548409947 15.0
55.553333803 13.0
55.558257660 19.0
55.563181516 12.0
55.568105372 15.0
55.573029228 11.0
55.577953084 12.0
55.582876940 13.0
55.587800796 8.0
55.592724652 13.0
55.597648508 13.0
55.602572364 8.0
55.607496220 10.0
55.612420076 15.0
55.617343932 11.0
55.622267788 9.0
55.627191644 8.0
55.632115500 10.0
55.637039356 9.0
55.641963212 13.0
55.646887068 9.0
55.651810924 9.0
55.656734780 7.0
55.661658636 5.0
55.666582492 11.0
55.671506348 13.0
55.676430204 8.0
55.681354060 8.0
55.686277916 8.0
55.691201772 9.0
55.696125628 13.0
55.701049484 15.0
55.705973340 14.0
55.710897196 13.0
55.715821052 9.0
55.720744908 10.0
55.725668764 14.0
55.730592620 9.0
55.735516476 8.0
55.740440332 8.0
55.745364188 20.0
55.750288044 12.0
55.755211900 17.0
55.760135756 12.0
55.765059612 10.0
55.769983468 5.0
55.774907324 11.0
55.779831180 14.0
55.784755036 9.0
55.789678892 9.0
55.794602748 7.0
55.799526604 14.0
55.804450460 10.0
55.809374316 10.0
55.814298172 15.0
55.819222028 12.0
55.824145884 15.0
55.829069740 13.0
55.833993596 11.0
55.838917452 11.0
55.843841308 15.0
55.848765164 6.0
55.853689020 10.0
55.858612876 10.0
55.863536732 11.0
55.868460588 7.0
55.873384444 9.0
55.878308300 14.0
55.883232156 7.0
55.888156012 9.0
55.893079868 12.0
55.898003724 12.0
55.902927580 11.0
55.907851436 12.0
55.912775292 14.0
55.917699148 11.0
55.922623004 15.0
55.927546860 13.0
55.932470717 7.0
55.937394573 15.0
55.942318429 12.0
55.947242285 14.0
55.952166141 13.0
55.957089997 11.0
55.962013853 8.0
55.966937709 7.0
55.971861565 8.0
55.976785421 6.0
55.981709277 10.0
55.986633133 13.0
55.991556989 10.0
55.996480845 12.0
56.001404701 10.0
56.006328557 16.0
56.011252413 7.0
56.016176269 13.0
56.021100125 12.0
56.026023981 15.0
56.030947837 15.0
56.035871693 9.0
56.040795549 8.0
56.045719405 12.0
56.050643261 10.0
56.055567117 8.0
56.060490973 4.0
56.065414829 10.0
56.070338685 8.0
56.075262541 7.0
56.080186397 11.0
56.085110253 6.0
56.090034109 9.0
56.094957965 10.0
56.099881821 14.0
56.104805677 10.0
56.109729533 8.0
56.114653389 7.0
56.119577245 12.0
56.124501101 8.0
56.129424957 9.0
56.134348813 10.0
56.139272669 12.0
56.144196525 10.0
56.149120381 9.0
56.154044237 6.0
56.158968093 11.0
56.163891949 17.0
56.168815805 7.0
56.173739661 12.0
56.178663517 14.0
56.183587373 11.0
56.188511229 10.0
56.193435085 8.0
56.198358941 14.0
56.203282797 12.0
56.208206653 8.0
56.213130509 9.0
56.218054365 9.0
56.222978221 15.0
56.227902077 9.0
56.232825933 11.0
56.237749789 10.0
56.242673645 14.0
56.247597501 8.0
56.252521357 13.0
56.257445213 12.0
56.262369069 7.0
56.267292925 11.0
56.272216781 7.0
56.277140637 17.0
56.282064493 6.0
56.286988349 8.0
56.291912205 12.0
56.296836061 9.0
56.301759918 11.0
56.306683774 12.0
56.311607630 12.0
56.316531486 13.0
56.321455342 12.0
56.326379198 11.0
56.331303054 11.0
56.336226910 9.0
56.341150766 8.0
56.346074622 14.0
56.350998478 6.0
56.355922334 8.0
56.360846190 9.0
56.365770046 8.0
56.370693902 8.0
56.375617758 6.0
56.380541614 13.0
56.385465470 14.0
56.390389326 11.0
56.395313182 12.0
56.400237038 9.0
56.405160894 6.0
56.410084750 6.0
56.415008606 10.0
56.419932462 13.0
56.424856318 10.0
56.429780174 10.0
56.434704030 5.0
56.439627886 5.0
56.444551742 10.0
56.449475598 6.0
56.454399454 8.0
56.459323310 12.0
56.464247166 13.0
56.469171022 11.0
56.474094878 8.0
56.479018734 10.0
56.483942590 17.0
56.488866446 9.0
56.493790302 13.0
56.498714158 10.0
56.503638014 9.0
56.508561870 10.0
56.513485726 12.0
56.518409582 9.0
56.523333438 10.0
56.528257294 12.0
56.533181150 21.0
56.538105006 10.0
56.543028862 10.0
56.547952718 8.0
56.552876574 9.0
56.557800430 9.0
56.562724286 10.0
56.567648142 15.0
56.572571998 8.0
56.577495854 13.0
56.582419710 16.0
56.587343566 9.0
56.592267422 15.0
56.597191278 18.0
56.602115134 13.0
56.607038990 16.0
56.611962846 10.0
56.616886702 6.0
56.621810558 11.0
56.626734414 10.0
56.631658270 6.0
56.636582126 12.0
56.641505982 10.0
56.646429838 13.0
56.651353694 9.0
56.656277550 18.0
56.661201406 7.0
56.666125262 15.0
56.671049119 8.0
56.675972975 11.0
56.680896831 12.0
56.685820687 6.0
56.690744543 8.0
56.695668399 11.0
56.700592255 13.0
56.705516111 9.0
56.710439967 10.0
56.715363823 17.0
56.720287679 12.0
56.725211535 11.0
56.730135391 11.0
56.735059247 12.0
56.739983103 9.0
56.744906959 10.0
56.749830815 9.0
56.754754671 8.0
56.759678527 9.0
56.764602383 21.0
56.769526239 10.0
56.774450095 8.0
56.779373951 13.0
56.784297807 12.0
56.789221663 14.0
56.794145519 10.0
56.799069375 10.0
56.803993231 10.0
56.808917087 18.0
56.813840943 8.0
56.818764799 16.0
56.823688655 17.0
56.828612511 14.0
56.833536367 14.0
56.838460223 13.0
56.843384079 12.0
56.848307935 8.0
56.853231791 8.0
56.858155647 9.0
56.863079503 17.0
56.868003359 6.0
56.872927215 9.0
56.877851071 7.0
56.882774927 6.0
56.887698783 13.0
56.892622639 11.0
56.897546495 16.0
56.902470351 8.0
56.907394207 10.0
56.912318063 13.0
56.917241919 15.0
56.922165775 7.0
56.927089631 15.0
56.932013487 7.0
56.936937343 10.0
56.941861199 7.0
56.946785055 8.0
56.951708911 14.0
56.956632767 10.0
56.961556623 15.0
56.966480479 8.0
56.971404335 18.0
56.976328191 8.0
56.981252047 8.0
56.986175903 6.0
56.991099759 15.0
56.996023615 6.0
57.000947471 5.0
57.005871327 11.0
57.010795183 9.0
57.015719039 8.0
57.020642895 9.0
57.025566751 5.0
57.030490607 11.0
57.035414463 11.0
57.040338320 11.0
57.045262176 11.0
57.050186032 12.0
57.055109888 10.0
57.060033744 12.0
57.064957600 21.0
57.069881456 9.0
57.074805312 15.0
57.079729168 6.0
57.084653024 9.0
57.089576880 11.0
57.094500736 21.0
57.099424592 9.0
57.104348448 11.0
57.109272304 11.0
57.114196160 14.0
57.119120016 13.0
57.124043872 9.0
57.128967728 12.0
57.133891584 15.0
57.138815440 8.0
57.143739296 13.0
57.148663152 22.0
57.153587008 13.0
57.158510864 10.0
57.163434720 3.0
57.168358576 11.0
57.173282432 14.0
57.178206288 17.0
57.183130144 10.0
57.188054000 16.0
57.192977856 12.0
57.197901712 6.0
57.202825568 15.0
57.207749424 7.0
57.212673280 14.0
57.217597136 9.0
57.222520992 7.0
57.227444848 12.0
57.232368704 16.0
57.237292560 14.0
57.242216416 17.0
57.247140272 15.0
57.252064128 11.0
57.256987984 8.0
57.261911840 11.0
57.266835696 10.0
57.271759552 16.0
57.276683408 7.0
57.281607264 18.0
57.286531120 5.0
57.291454976 8.0
57.296378832 13.0
57.301302688 12.0
57.306226544 6.0
57.311150400 13.0
57.316074256 14.0
57.320998112 10.0
57.325921968 13.0
57.330845824 10.0
57.335769680 20.0
57.340693536 9.0
57.345617392 6.0
57.350541248 9.0
57.355465104 10.0
57.360388960 8.0
57.365312816 19.0
57.370236672 12.0
57.375160528 9.0
57.380084384 9.0
57.385008240 11.0
57.389932096 8.0
57.394855952 9.0
57.399779808 15.0
57.404703664 9.0
57.409627521 16.0
57.414551377 16.0
57.419475233 10.0
57.424399089 9.0
57.429322945 8.0
57.434246801 12.0
57.439170657 11.0
57.444094513 13.0
57.449018369 17.0
57.453942225 8.0
57.458866081 6.0
57.463789937 13.0
57.468713793 9.0
57.473637649 15.0
57.478561505 9.0
57.483485361 13.0
57.488409217 14.0
57.493333073 6.0
57.498256929 8.0
57.503180785 7.0
57.508104641 13.0
57.513028497 6.0
57.517952353 9.0
57.522876209 16.0
57.527800065 17.0
57.532723921 10.0
57.537647777 9.0
57.542571633 10.0
57.547495489 11.0
57.552419345 15.0
57.557343201 17.0
57.562267057 15.0
57.567190913 13.0
57.572114769 9.0
57.577038625 15.0
57.581962481 11.0
57.586886337 10.0
57.591810193 17.0
57.596734049 13.0
57.601657905 11.0
57.606581761 18.0
57.611505617 11.0
57.616429473 16.0
57.621353329 20.0
57.626277185 18.0
57.631201041 10.0
57.636124897 6.0
57.641048753 18.0
57.645972609 12.0
57.650896465 15.0
57.655820321 16.0
57.660744177 13.0
57.665668033 11.0
57.670591889 12.0
57.675515745 14.0
57.680439601 14.0
57.685363457 14.0
57.690287313 22.0
57.695211169 22.0
57.700135025 12.0
57.705058881 14.0
57.709982737 14.0
57.714906593 17.0
57.719830449 24.0
57.724754305 11.0
57.729678161 18.0
57.734602017 29.0
57.739525873 15.0
57.744449729 23.0
57.749373585 15.0
57.754297441 20.0
57.759221297 25.0
57.764145153 37.0
57.769069009 23.0
57.773992865 25.0
57.778916721 38.0
57.783840578 32.0
57.788764434 27.0
57.793688290 22.0
57.798612146 22.0
57.803536002 25.0
57.808459858 23.0
57.813383714 25.0
57.818307570 33.0
57.823231426 23.0
57.828155282 25.0
57.833079138 26.0
57.838002994 21.0
57.842926850 26.0
57.847850706 24.0
57.852774562 29.0
57.857698418 16.0
57.862622274 28.0
57.867546130 23.0
57.872469986 29.0
57.877393842 21.0
57.882317698 32.0
57.887241554 19.0
57.892165410 24.0
57.897089266 25.0
57.902013122 21.0
57.906936978 21.0
57.911860834 22.0
57.916784690 19.0
57.921708546 33.0
57.926632402 14.0
57.931556258 14.0
57.936480114 14.0
57.941403970 29.0
57.946327826 11.0
57.951251682 23.0
57.956175538 18.0
57.961099394 13.0
57.966023250 18.0
57.970947106 14.0
57.975870962 13.0
57.980794818 20.0
57.985718674 18.0
57.990642530 10.0
57.995566386 12.0
58.000490242 16.0
58.005414098 18.0
58.010337954 7.0
58.015261810 17.0
58.020185666 21.0
58.025109522 15.0
58.030033378 10.0
58.034957234 12.0
58.039881090 13.0
58.044804946 15.0
58.049728802 7.0
58.054652658 12.0
58.059576514 12.0
58.064500370 12.0
58.069424226 14.0
58.074348082 13.0
58.079271938 18.0
58.084195794 16.0
58.089119650 10.0
58.094043506 12.0
58.098967362 14.0
58.103891218 17.0
58.108815074 13.0
58.113738930 14.0
58.118662786 12.0
58.123586642 20.0
58.128510498 11.0
58.133434354 9.0
58.138358210 15.0
58.143282066 11.0
58.148205922 7.0
58.153129779 11.0
58.158053635 11.0
58.162977491 10.0
58.167901347 13.0
58.172825203 9.0
58.177749059 16.0
58.182672915 11.0
58.187596771 10.0
58.192520627 12.0
58.197444483 13.0
58.202368339 16.0
58.207292195 13.0
58.212216051 9.0
58.217139907 12.0
58.222063763 13.0
58.226987619 4.0
58.231911475 15.0
58.236835331 10.0
58.241759187 8.0
58.246683043 15.0
58.251606899 15.0
58.256530755 15.0
58.261454611 15.0
58.266378467 14.0
58.271302323 10.0
58.276226179 15.0
58.281150035 9.0
58.286073891 11.0
58.290997747 6.0
58.295921603 10.0
58.300845459 6.0
58.305769315 6.0
58.310693171 17.0
58.315617027 16.0
58.320540883 11.0
58.325464739 13.0
58.330388595 6.0
58.335312451 15.0
58.340236307 11.0
58.345160163 11.0
58.350084019 16.0
58.355007875 12.0
58.359931731 11.0
58.364855587 12.0
58.369779443 12.0
58.374703299 10.0
58.379627155 7.0
58.384551011 5.0
58.389474867 10.0
58.394398723 10.0
58.399322579 14.0
58.404246435 13.0
58.409170291 10.0
58.414094147 11.0
58.419018003 14.0
58.423941859 10.0
58.428865715 6.0
58.433789571 12.0
58.438713427 9.0
58.443637283 12.0
58.448561139 6.0
58.453484995 10.0
58.458408851 10.0
58.463332707 10.0
58.468256563 19.0
58.473180419 14.0
58.478104275 5.0
58.483028131 9.0
58.487951987 11.0
58.492875843 13.0
58.497799699 7.0
58.502723555 13.0
58.507647411 14.0
58.512571267 9.0
58.517495123 21.0
58.522418980 13.0
58.527342836 12.0
58.532266692 10.0
58.537190548 18.0
58.542114404 12.0
58.547038260 6.0
58.551962116 9.0
58.556885972 13.0
58.561809828 10.0
58.566733684 12.0
58.571657540 13.0
58.576581396 12.0
58.581505252 11.0
58.586429108 9.0
58.591352964 13.0
58.596276820 14.0
58.601200676 10.0
58.606124532 9.0
58.611048388 9.0
58.615972244 13.0
58.620896100 10.0
58.625819956 11.0
58.630743812 12.0
58.635667668 8.0
58.640591524 13.0
58.645515380 7.0
58.650439236 15.0
58.655363092 7.0
58.660286948 11.0
58.665210804 4.0
58.670134660 11.0
58.675058516 7.0
58.679982372 15.0
58.684906228 17.0
58.689830084 12.0
58.694753940 4.0
58.699677796 7.0
58.704601652 9.0
58.709525508 14.0
58.714449364 11.0
58.719373220 8.0
58.724297076 14.0
58.729220932 13.0
58.734144788 16.0
58.739068644 10.0
58.743992500 10.0
58.748916356 8.0
58.753840212 20.0
58.758764068 7.0
58.763687924 15.0
58.768611780 12.0
58.773535636 12.0
58.778459492 17.0
58.783383348 15.0
58.788307204 16.0
58.793231060 10.0
58.798154916 8.0
58.803078772 9.0
58.808002628 13.0
58.812926484 10.0
58.817850340 10.0
58.822774196 9.0
58.827698052 12.0
58.832621908 7.0
58.837545764 5.0
58.842469620 12.0
58.847393476 10.0
58.852317332 11.0
58.857241188 15.0
58.862165044 9.0
58.867088900 6.0
58.872012756 9.0
58.876936612 6.0
58.881860468 10.0
58.886784324 13.0
58.891708181 14.0
58.896632037 17.0
58.901555893 12.0
58.906479749 12.0
58.911403605 15.0
58.916327461 12.0
58.921251317 8.0
58.926175173 7.0
58.931099029 17.0
58.936022885 10.0
58.940946741 9.0
58.945870597 11.0
58.950794453 17.0
58.955718309 9.0
58.960642165 18.0
58.965566021 16.0
58.970489877 12.0
58.975413733 17.0
58.980337589 9.0
58.985261445 6.0
58.990185301 11.0
58.995109157 11.0
59.000033013 17.0
59.004956869 9.0
59.009880725 7.0
59.014804581 15.0
59.019728437 11.0
59.024652293 5.0
59.029576149 7.0
59.034500005 13.0
59.039423861 18.0
59.044347717 5.0
59.049271573 16.0
59.054195429 15.0
59.059119285 11.0
59.064043141 13.0
59.068966997 13.0
59.073890853 13.0
59.078814709 11.0
59.083738565 13.0
59.088662421 4.0
59.093586277 11.0
59.098510133 11.0
59.103433989 13.0
59.108357845 15.0
59.113281701 10.0
59.118205557 15.0
59.123129413 9.0
59.128053269 12.0
59.132977125 9.0
59.137900981 15.0
59.142824837 9.0
59.147748693 10.0
59.152672549 5.0
59.157596405 16.0
59.162520261 13.0
59.167444117 11.0
59.172367973 13.0
59.177291829 14.0
59.182215685 3.0
59.187139541 12.0
59.192063397 19.0
59.196987253 7.0
59.201911109 9.0
59.206834965 13.0
59.211758821 12.0
59.216682677 9.0
59.221606533 14.0
59.226530389 7.0
59.231454245 18.0
59.236378101 11.0
59.241301957 10.0
59.246225813 8.0
59.251149669 6.0
59.256073525 10.0
59.260997382 9.0
59.265921238 14.0
59.270845094 12.0
59.275768950 10.0
59.280692806 9.0
59.285616662 14.0
59.290540518 8.0
59.295464374 12.0
59.300388230 15.0
59.305312086 8.0
59.310235942 10.0
59.315159798 12.0
59.320083654 6.0
59.325007510 10.0
59.329931366 13.0
59.334855222 8.0
59.339779078 14.0
59.344702934 8.0
59.349626790 12.0
59.354550646 10.0
59.359474502 6.0
59.364398358 14.0
59.369322214 16.0
59.374246070 15.0
59.379169926 8.0
59.384093782 9.0
59.389017638 14.0
59.393941494 5.0
59.398865350 18.0
59.403789206 15.0
59.408713062 10.0
59.413636918 21.0
59.418560774 10.0
59.423484630 5.0
59.428408486 10.0
59.433332342 13.0
59.438256198 7.0
59.443180054 12.0
59.448103910 10.0
59.453027766 11.0
59.457951622 12.0
59.462875478 12.0
59.467799334 12.0
59.472723190 12.0
59.477647046 15.0
59.482570902 8.0
59.487494758 12.0
59.492418614 10.0
59.497342470 6.0
59.502266326 12.0
59.507190182 11.0
59.512114038 13.0
59.517037894 7.0
59.521961750 8.0
59.526885606 6.0
59.531809462 11.0
59.536733318 10.0
59.541657174 13.0
59.546581030 11.0
59.551504886 12.0
59.556428742 12.0
59.561352598 17.0
59.566276454 12.0
59.571200310 7.0
59.576124166 11.0
59.581048022 9.0
59.585971878 9.0
59.590895734 12.0
59.595819590 9.0
59.600743446 11.0
59.605667302 13.0
59.610591158 12.0
59.615515014 10.0
59.620438870 6.0
59.625362726 17.0
59.630286582 15.0
59.635210439 22.0
59.640134295 9.0
59.645058151 13.0
59.649982007 6.0
59.654905863 16.0
59.659829719 10.0
59.664753575 13.0
59.669677431 14.0
59.674601287 9.0
59.679525143 13.0
59.684448999 14.0
59.689372855 10.0
59.694296711 14.0
59.699220567 8.0
59.704144423 11.0
59.709068279 10.0
59.713992135 9.0
59.718915991 11.0
59.723839847 12.0
59.728763703 16.0
59.733687559 7.0
59.738611415 11.0
59.743535271 15.0
59.748459127 15.0
59.753382983 10.0
59.758306839 12.0
59.763230695 11.0
59.768154551 18.0
59.773078407 13.0
59.778002263 10.0
59.782926119 10.0
59.787849975 10.0
59.792773831 15.0
59.797697687 10.0
59.802621543 9.0
59.807545399 11.0
59.812469255 5.0
59.817393111 9.0
59.822316967 14.0
59.827240823 10.0
59.832164679 10.0
59.837088535 14.0
59.842012391 13.0
59.846936247 10.0
59.851860103 11.0
59.856783959 14.0
59.861707815 4.0
59.866631671 14.0
59.871555527 8.0
59.876479383 13.0
59.881403239 9.0
59.886327095 18.0
59.891250951 15.0
59.896174807 7.0
59.901098663 15.0
59.906022519 13.0
59.910946375 8.0
59.915870231 13.0
59.920794087 10.0
59.925717943 16.0
59.930641799 13.0
59.935565655 14.0
59.940489511 14.0
59.945413367 19.0
59.950337223 5.0
59.955261079 11.0
59.960184935 8.0
59.965108791 18.0
59.970032647 7.0
59.974956503 21.0
59.979880359 16.0
59.984804215 18.0
59.989728071 9.0
59.994651927 6.0
59.999575783 13.0
60.004499640 12.0
60.009423496 18.0
60.014347352 16.0
60.019271208 9.0
60.024195064 10.0
60.029118920 8.0
60.034042776 12.0
60.038966632 5.0
60.043890488 25.0
60.048814344 11.0
60.053738200 9.0
60.058662056 8.0
60.063585912 14.0
60.068509768 8.0
60.073433624 7.0
60.078357480 15.0
60.083281336 17.0
60.088205192 12.0
60.093129048 14.0
60.098052904 13.0
60.102976760 15.0
60.107900616 11.0
60.112824472 14.0
60.117748328 11.0
60.122672184 15.0
60.127596040 10.0
60.132519896 10.0
60.137443752 9.0
60.142367608 16.0
60.147291464 18.0
60.152215320 16.0
60.157139176 24.0
60.162063032 10.0
60.166986888 16.0
60.171910744 19.0
60.176834600 17.0
60.181758456 15.0
60.186682312 16.0
60.191606168 15.0
60.196530024 12.0
60.201453880 10.0
60.206377736 18.0
60.211301592 13.0
60.216225448 12.0
60.221149304 13.0
60.226073160 19.0
60.230997016 10.0
60.235920872 21.0
60.240844728 22.0
60.245768584 24.0
60.250692440 9.0
60.255616296 23.0
60.260540152 20.0
60.265464008 23.0
60.270387864 18.0
60.275311720 24.0
60.280235576 14.0
60.285159432 15.0
60.290083288 20.0
60.295007144 23.0
60.299931000 11.0
60.304854856 21.0
60.309778712 23.0
60.314702568 19.0
60.319626424 20.0
60.324550280 22.0
60.329474136 18.0
60.334397992 11.0
60.339321848 23.0
60.344245704 16.0
60.349169560 19.0
60.354093416 21.0
60.359017272 25.0
60.363941128 20.0
60.368864984 19.0
60.373788841 16.0
60.378712697 16.0
60.383636553 16.0
60.388560409 25.0
60.393484265 13.0
60.398408121 15.0
60.403331977 14.0
60.408255833 14.0
60.413179689 16.0
60.418103545 19.0
60.423027401 25.0
60.427951257 21.0
60.432875113 14.0
60.437798969 17.0
60.442722825 16.0
60.447646681 19.0
60.452570537 17.0
60.457494393 18.0
60.462418249 19.0
60.467342105 15.0
60.472265961 22.0
60.477189817 14.0
60.482113673 11.0
60.487037529 16.0
60.491961385 16.0
60.496885241 18.0
60.501809097 26.0
60.506732953 12.0
60.511656809 16.0
60.516580665 20.0
60.521504521 21.0
60.526428377 16.0
60.531352233 21.0
60.536276089 23.0
60.541199945 21.0
60.546123801 31.0
60.551047657 21.0
60.555971513 21.0
60.560895369 17.0
60.565819225 17.0
60.570743081 24.0
60.575666937 19.0
60.580590793 26.0
60.585514649 19.0
60.590438505 14.0
60.595362361 24.0
60.600286217 22.0
60.605210073 23.0
60.610133929 31.0
60.615057785 15.0
60.619981641 23.0
60.624905497 23.0
60.629829353 25.0
60.634753209 26.0
60.639677065 36.0
60.644600921 30.0
60.649524777 28.0
60.654448633 24.0
60.659372489 33.0
60.664296345 32.0
60.669220201 32.0
60.674144057 40.0
60.679067913 35.0
60.683991769 40.0
60.688915625 54.0
60.693839481 57.0
60.698763337 56.0
60.703687193 54.0
60.708611049 81.0
60.713534905 90.0
60.718458761 85.0
60.723382617 94.0
60.728306473 126.0
60.733230329 168.0
60.738154185 162.0
60.743078042 192.0
60.748001898 297.0
60.752925754 330.0
60.757849610 378.0
60.762773466 426.0
60.767697322 523.0
60.772621178 577.0
60.777545034 600.0
60.782468890 697.0
60.787392746 660.0
60.792316602 675.0
60.797240458 678.0
60.802164314 610.0
60.807088170 599.0
60.812012026 532.0
60.816935882 464.0
60.821859738 438.0
60.826783594 374.0
60.831707450 329.0
60.836631306 321.0
60.841555162 272.0
60.846479018 220.0
60.851402874 227.0
60.856326730 197.0
60.861250586 214.0
60.866174442 216.0
60.871098298 183.0
60.876022154 186.0
60.880946010 163.0
60.885869866 149.0
60.890793722 157.0
60.895717578 153.0
60.900641434 108.0
60.905565290 108.0
60.910489146 102.0
60.915413002 79.0
60.920336858 77.0
60.925260714 67.0
60.930184570 65.0
60.935108426 50.0
60.940032282 49.0
60.944956138 53.0
60.949879994 38.0
60.954803850 38.0
60.959727706 41.0
60.964651562 49.0
60.969575418 32.0
60.974499274 34.0
60.979423130 38.0
60.984346986 44.0
60.989270842 35.0
60.994194698 38.0
60.999118554 36.0
61.004042410 29.0
61.008966266 34.0
61.013890122 35.0
61.018813978 37.0
61.023737834 31.0
61.028661690 33.0
61.033585546 34.0
61.038509402 32.0
61.043433258 49.0
61.048357114 22.0
61.053280970 31.0
61.058204826 32.0
61.063128682 31.0
61.068052538 26.0
61.072976394 32.0
61.077900250 28.0
61.082824106 27.0
61.087747962 23.0
61.092671818 31.0
61.097595674 26.0
61.102519530 33.0
61.107443386 22.0
61.112367243 27.0
61.117291099 34.0
61.122214955 20.0
61.127138811 23.0
61.132062667 21.0
61.136986523 27.0
61.141910379 29.0
61.146834235 16.0
61.151758091 29.0
61.156681947 28.0
61.161605803 26.0
61.166529659 22.0
61.171453515 21.0
61.176377371 22.0
61.181301227 19.0
61.186225083 18.0
61.191148939 23.0
61.196072795 24.0
61.200996651 26.0
61.205920507 19.0
61.210844363 14.0
61.215768219 24.0
61.220692075 24.0
61.225615931 17.0
61.230539787 29.0
61.235463643 19.0
61.240387499 16.0
61.245311355 20.0
61.250235211 20.0
61.255159067 21.0
61.260082923 22.0
61.265006779 23.0
61.269930635 22.0
61.274854491 19.0
61.279778347 26.0
61.284702203 10.0
61.289626059 16.0
61.294549915 25.0
61.299473771 27.0
61.304397627 25.0
61.309321483 22.0
61.314245339 26.0
61.319169195 19.0
61.324093051 16.0
61.329016907 17.0
61.333940763 22.0
61.338864619 20.0
61.343788475 19.0
61.348712331 15.0
61.353636187 25.0
61.358560043 18.0
61.363483899 22.0
61.368407755 22.0
61.373331611 20.0
61.378255467 22.0
61.383179323 22.0
61.388103179 17.0
61.393027035 20.0
61.397950891 17.0
61.402874747 19.0
61.407798603 15.0
61.412722459 16.0
61.417646315 19.0
61.422570171 22.0
61.427494027 12.0
61.432417883 18.0
61.437341739 19.0
61.442265595 19.0
61.447189451 11.0
61.452113307 27.0
61.457037163 17.0
61.461961019 15.0
61.466884875 19.0
61.471808731 16.0
61.476732587 17.0
61.481656443 30.0
61.486580300 20.0
61.491504156 21.0
61.496428012 21.0
61.501351868 23.0
61.506275724 27.0
61.511199580 19.0
61.516123436 24.0
61.521047292 25.0
61.525971148 22.0
61.530895004 15.0
61.535818860 18.0
61.540742716 17.0
61.545666572 18.0
61.550590428 12.0
61.555514284 11.0
61.560438140 20.0
61.565361996 24.0
61.570285852 14.0
61.575209708 20.0
61.580133564 13.0
61.585057420 22.0
61.589981276 22.0
61.594905132 18.0
61.599828988 22.0
61.604752844 20.0
61.609676700 28.0
61.614600556 18.0
61.619524412 11.0
61.624448268 22.0
61.629372124 12.0
61.634295980 15.0
61.639219836 17.0
61.644143692 16.0
61.649067548 15.0
61.653991404 27.0
61.658915260 16.0
61.663839116 17.0
61.668762972 25.0
61.673686828 16.0
61.678610684 15.0
61.683534540 18.0
61.688458396 22.0
61.693382252 17.0
61.698306108 25.0
61.703229964 16.0
61.708153820 17.0
61.713077676 16.0
61.718001532 11.0
61.722925388 14.0
61.727849244 20.0
61.732773100 15.0
61.737696956 21.0
61.742620812 19.0
61.747544668 18.0
61.752468524 27.0
61.757392380 23.0
61.762316236 21.0
61.767240092 15.0
61.772163948 17.0
61.777087804 20.0
61.782011660 22.0
61.786935516 24.0
61.791859372 17.0
61.796783228 28.0
61.801707084 13.0
61.806630940 23.0
61.811554796 23.0
61.816478652 15.0
61.821402508 18.0
61.826326364 19.0
61.831250220 18.0
61.836174076 11.0
61.841097932 9.0
61.846021788 18.0
61.850945644 23.0
61.855869501 29.0
61.860793357 16.0
61.865717213 19.0
61.870641069 23.0
61.875564925 14.0
61.880488781 16.0
61.885412637 16.0
61.890336493 14.0
61.895260349 15.0
61.900184205 25.0
61.905108061 17.0
61.910031917 24.0
61.914955773 18.0
61.919879629 16.0
61.924803485 22.0
61.929727341 19.0
61.934651197 14.0
61.939575053 20.0
61.944498909 15.0
61.949422765 15.0
61.954346621 22.0
61.959270477 16.0
61.964194333 22.0
61.969118189 21.0
61.974042045 9.0
61.978965901 21.0
61.983889757 27.0
61.988813613 21.0
61.993737469 20.0
61.998661325 13.0
62.003585181 15.0
62.008509037 23.0
62.013432893 18.0
62.018356749 16.0
62.023280605 15.0
62.028204461 15.0
62.033128317 21.0
62.038052173 27.0
62.042976029 29.0
62.047899885 23.0
62.052823741 20.0
62.057747597 17.0
62.062671453 21.0
62.067595309 20.0
62.072519165 22.0
62.077443021 28.0
62.082366877 19.0
62.087290733 22.0
62.092214589 14.0
62.097138445 19.0
62.102062301 22.0
62.106986157 21.0
62.111910013 14.0
62.116833869 17.0
62.121757725 15.0
62.126681581 15.0
62.131605437 26.0
62.136529293 16.0
62.141453149 19.0
62.146377005 25.0
62.151300861 27.0
62.156224717 26.0
62.161148573 25.0
62.166072429 20.0
62.170996285 16.0
62.175920141 20.0
62.180843997 23.0
62.185767853 17.0
62.190691709 19.0
62.195615565 17.0
62.200539421 17.0
62.205463277 16.0
62.210387133 23.0
62.215310989 17.0
62.220234845 16.0
62.225158702 24.0
62.230082558 22.0
62.235006414 28.0
62.239930270 15.0
62.244854126 21.0
62.249777982 29.0
62.254701838 16.0
62.259625694 18.0
62.264549550 18.0
62.269473406 28.0
62.274397262 20.0
62.279321118 27.0
62.284244974 14.0
62.289168830 21.0
62.294092686 27.0
62.299016542 22.0
62.303940398 19.0
62.308864254 26.0
62.313788110 20.0
62.318711966 20.0
62.323635822 28.0
62.328559678 27.0
62.333483534 18.0
62.338407390 18.0
62.343331246 25.0
62.348255102 22.0
62.353178958 27.0
62.358102814 23.0
62.363026670 21.0
62.367950526 21.0
62.372874382 23.0
62.377798238 13.0
62.382722094 14.0
62.387645950 21.0
62.392569806 25.0
62.397493662 25.0
62.402417518 24.0
62.407341374 19.0
62.412265230 19.0
62.417189086 25.0
62.422112942 20.0
62.427036798 22.0
62.431960654 26.0
62.436884510 17.0
62.441808366 22.0
62.446732222 31.0
62.451656078 19.0
62.456579934 21.0
62.461503790 16.0
62.466427646 13.0
62.471351502 21.0
62.476275358 27.0
62.481199214 22.0
62.486123070 18.0
62.491046926 15.0
62.495970782 14.0
62.500894638 23.0
62.505818494 15.0
62.510742350 28.0
62.515666206 30.0
62.520590062 29.0
62.525513918 17.0
62.530437774 20.0
62.535361630 23.0
62.540285486 19.0
62.545209342 23.0
62.550133198 18.0
62.555057054 14.0
62.559980910 25.0
62.564904766 19.0
62.569828622 21.0
62.574752478 28.0
62.579676334 20.0
62.584600190 29.0
62.589524046 33.0
62.594447903 29.0
62.599371759 28.0
62.604295615 32.0
62.609219471 24.0
62.614143327 33.0
62.619067183 22.0
62.623991039 20.0
62.628914895 22.0
62.633838751 25.0
62.638762607 23.0
62.643686463 19.0
62.648610319 31.0
62.653534175 30.0
62.658458031 18.0
62.663381887 27.0
62.668305743 18.0
62.673229599 23.0
62.678153455 29.0
62.683077311 22.0
62.688001167 26.0
62.692925023 23.0
62.697848879 26.0
62.702772735 23.0
62.707696591 26.0
62.712620447 29.0
62.717544303 15.0
62.722468159 32.0
62.727392015 27.0
62.732315871 29.0
62.737239727 32.0
62.742163583 26.0
62.747087439 25.0
62.752011295 24.0
62.756935151 23.0
62.761859007 31.0
62.766782863 22.0
62.771706719 21.0
62.776630575 27.0
62.781554431 24.0
62.786478287 27.0
62.791402143 37.0
62.796325999 32.0
62.801249855 22.0
62.806173711 26.0
62.811097567 31.0
62.816021423 22.0
62.820945279 32.0
62.825869135 27.0
62.830792991 26.0
62.835716847 29.0
62.840640703 33.0
62.845564559 22.0
62.850488415 32.0
62.855412271 37.0
62.860336127 24.0
62.865259983 32.0
62.870183839 30.0
62.875107695 27.0
62.880031551 28.0
62.884955407 42.0
62.889879263 34.0
62.894803119 31.0
62.899726975 33.0
62.904650831 31.0
62.909574687 34.0
62.914498543 27.0
62.919422399 32.0
62.924346255 33.0
62.929270111 37.0
62.934193967 26.0
62.939117823 31.0
62.944041679 29.0
62.948965535 25.0
62.953889391 30.0
62.958813247 30.0
62.963737104 30.0
62.968660960 25.0
62.973584816 36.0
62.978508672 26.0
62.983432528 35.0
62.988356384 22.0
62.993280240 28.0
62.998204096 22.0
63.003127952 29.0
63.008051808 35.0
63.012975664 27.0
63.017899520 24.0
63.022823376 38.0
63.027747232 32.0
63.032671088 35.0
63.037594944 28.0
63.042518800 39.0
63.047442656 36.0
63.052366512 37.0
63.057290368 44.0
63.062214224 42.0
63.067138080 32.0
63.072061936 32.0
63.076985792 35.0
63.081909648 40.0
63.086833504 46.0
63.091757360 34.0
63.096681216 40.0
63.101605072 39.0
63.106528928 29.0
63.111452784 33.0
63.116376640 36.0
63.121300496 32.0
63.126224352 35.0
63.131148208 31.0
63.136072064 40.0
63.140995920 39.0
63.145919776 38.0
63.150843632 34.0
63.155767488 42.0
63.160691344 35.0
63.165615200 38.0
63.170539056 26.0
63.175462912 35.0
63.180386768 27.0
63.185310624 28.0
63.190234480 42.0
63.195158336 24.0
63.200082192 34.0
63.205006048 39.0
63.209929904 37.0
63.214853760 39.0
63.219777616 43.0
63.224701472 26.0
63.229625328 32.0
63.234549184 33.0
63.239473040 43.0
63.244396896 39.0
63.249320752 30.0
63.254244608 29.0
63.259168464 32.0
63.264092320 38.0
63.269016176 31.0
63.273940032 39.0
63.278863888 44.0
63.283787744 36.0
63.288711600 35.0
63.293635456 43.0
63.298559312 45.0
63.303483168 43.0
63.308407024 37.0
63.313330880 43.0
63.318254736 44.0
63.323178592 46.0
63.328102448 40.0
63.333026304 34.0
63.337950161 45.0
63.342874017 35.0
63.347797873 38.0
63.352721729 56.0
63.357645585 39.0
63.362569441 39.0
63.367493297 47.0
63.372417153 33.0
63.377341009 44.0
63.382264865 42.0
63.387188721 42.0
63.392112577 51.0
63.397036433 19.0
63.401960289 51.0
63.406884145 52.0
63.411808001 48.0
63.416731857 57.0
63.421655713 41.0
63.426579569 38.0
63.431503425 57.0
63.436427281 31.0
63.441351137 42.0
63.446274993 43.0
63.451198849 51.0
63.456122705 45.0
63.461046561 41.0
63.465970417 37.0
63.470894273 42.0
63.475818129 43.0
63.480741985 47.0
63.485665841 55.0
63.490589697 53.0
63.495513553 49.0
63.500437409 41.0
63.505361265 56.0
63.510285121 44.0
63.515208977 47.0
63.520132833 47.0
63.525056689 59.0
63.529980545 37.0
63.534904401 47.0
63.539828257 36.0
63.544752113 42.0
63.549675969 58.0
63.554599825 64.0
63.559523681 51.0
63.564447537 47.0
63.569371393 44.0
63.574295249 46.0
63.579219105 45.0
63.584142961 51.0
63.589066817 52.0
63.593990673 71.0
63.598914529 59.0
63.603838385 66.0
63.608762241 49.0
63.613686097 47.0
63.618609953 48.0
63.623533809 63.0
63.628457665 49.0
63.633381521 51.0
63.638305377 48.0
63.643229233 61.0
63.648153089 53.0
63.653076945 59.0
63.658000801 62.0
63.662924657 51.0
63.667848513 50.0
63.672772369 58.0
63.677696225 54.0
63.682620081 51.0
63.687543937 65.0
63.692467793 63.0
63.697391649 54.0
63.702315505 60.0
63.707239362 65.0
63.712163218 55.0
63.717087074 56.0
63.722010930 49.0
63.726934786 48.0
63.731858642 69.0
63.736782498 60.0
63.741706354 57.0
63.746630210 62.0
63.751554066 59.0
63.756477922 62.0
63.761401778 60.0
63.766325634 77.0
63.771249490 66.0
63.776173346 65.0
63.781097202 58.0
63.786021058 64.0
63.790944914 72.0
63.795868770 63.0
63.800792626 63.0
63.805716482 71.0
63.810640338 77.0
63.815564194 82.0
63.820488050 71.0
63.825411906 74.0
63.830335762 70.0
63.835259618 74.0
63.840183474 73.0
63.845107330 71.0
63.850031186 78.0
63.854955042 75.0
63.859878898 68.0
63.864802754 91.0
63.869726610 60.0
63.874650466 69.0
63.879574322 78.0
63.884498178 87.0
63.889422034 99.0
63.894345890 80.0
63.899269746 79.0
63.904193602 83.0
63.909117458 78.0
63.914041314 87.0
63.918965170 84.0
63.923889026 93.0
63.928812882 71.0
63.933736738 89.0
63.938660594 84.0
63.943584450 79.0
63.948508306 80.0
63.953432162 93.0
63.958356018 99.0
63.963279874 85.0
63.968203730 79.0
63.973127586 104.0
63.978051442 109.0
63.982975298 121.0
63.987899154 87.0
63.992823010 101.0
63.997746866 103.0
64.002670722 101.0
64.007594578 106.0
64.012518434 107.0
64.017442290 100.0
64.022366146 93.0
64.027290002 113.0
64.032213858 98.0
64.037137714 109.0
64.042061570 113.0
64.046985426 101.0
64.051909282 89.0
64.056833138 120.0
64.061756994 124.0
64.066680850 128.0
64.071604706 151.0
64.076528563 100.0
64.081452419 113.0
64.086376275 130.0
64.091300131 119.0
64.096223987 126.0
64.101147843 137.0
64.106071699 125.0
64.110995555 134.0
64.115919411 119.0
64.120843267 149.0
64.125767123 151.0
64.130690979 137.0
64.135614835 138.0
64.140538691 142.0
64.145462547 159.0
64.150386403 166.0
64.155310259 159.0
64.160234115 143.0
64.165157971 176.0
64.170081827 169.0
64.175005683 153.0
64.179929539 176.0
64.184853395 176.0
64.189777251 182.0
64.194701107 184.0
64.199624963 208.0
64.204548819 190.0
64.209472675 172.0
64.214396531 208.0
64.219320387 219.0
64.224244243 218.0
64.229168099 204.0
64.234091955 178.0
64.239015811 203.0
64.243939667 236.0
64.248863523 266.0
64.253787379 229.0
64.258711235 234.0
64.263635091 225.0
64.268558947 260.0
64.273482803 217.0
64.278406659 284.0
64.283330515 287.0
64.288254371 282.0
64.293178227 271.0
64.298102083 281.0
64.303025939 277.0
64.307949795 297.0
64.312873651 304.0
64.317797507 286.0
64.322721363 294.0
64.327645219 330.0
64.332569075 362.0
64.337492931 332.0
64.342416787 323.0
64.347340643 389.0
64.352264499 343.0
64.357188355 340.0
64.362112211 391.0
64.367036067 321.0
64.371959923 397.0
64.376883779 409.0
64.381807635 410.0
64.386731491 470.0
64.391655347 466.0
64.396579203 455.0
64.401503059 428.0
64.406426915 487.0
64.411350771 460.0
64.416274627 472.0
64.421198483 531.0
64.426122339 536.0
64.431046195 558.0
64.435970051 544.0
64.440893907 587.0
64.445817764 608.0
64.450741620 575.0
64.455665476 598.0
64.460589332 597.0
64.465513188 668.0
64.470437044 698.0
64.475360900 669.0
64.480284756 735.0
64.485208612 773.0
64.490132468 799.0
64.495056324 803.0
64.499980180 834.0
64.504904036 844.0
64.509827892 855.0
64.514751748 916.0
64.519675604 950.0
64.524599460 960.0
64.529523316 1036.0
64.534447172 1038.0
64.539371028 1115.0
64.544294884 1116.0
64.549218740 1232.0
64.554142596 1221.0
64.559066452 1262.0
64.563990308 1338.0
64.568914164 1422.0
64.573838020 1441.0
64.578761876 1549.0
64.583685732 1528.0
64.588609588 1682.0
64.593533444 1718.0
64.598457300 1737.0
64.603381156 1829.0
64.608305012 1776.0
64.613228868 1954.0
64.618152724 2052.0
64.623076580 2103.0
64.628000436 2109.0
64.632924292 2144.0
64.637848148 2258.0
64.642772004 2227.0
64.647695860 2345.0
64.652619716 2387.0
64.657543572 2476.0
64.662467428 2452.0
64.667391284 2492.0
64.672315140 2503.0
64.677238996 2536.0
64.682162852 2514.0
64.687086708 2482.0
64.692010564 2490.0
64.696934420 2498.0
64.701858276 2528.0
64.706782132 2526.0
64.711705988 2517.0
64.716629844 2589.0
64.721553700 2487.0
64.726477556 2487.0
64.731401412 2360.0
64.736325268 2457.0
64.741249124 2412.0
64.746172980 2334.0
64.751096836 2330.0
64.756020692 2265.0
64.760944548 2372.0
64.765868404 2311.0
64.770792260 2238.0
64.775716116 2281.0
64.780639972 2251.0
64.785563828 2159.0
64.790487684 2144.0
64.795411540 2152.0
64.800335396 2146.0
64.805259252 2100.0
64.810183108 2107.0
64.815106965 1980.0
64.820030821 1993.0
64.824954677 1849.0
64.829878533 1951.0
64.834802389 1911.0
64.839726245 1855.0
64.844650101 1887.0
64.849573957 1911.0
64.854497813 1891.0
64.859421669 1875.0
64.864345525 1728.0
64.869269381 1659.0
64.874193237 1739.0
64.879117093 1646.0
64.884040949 1626.0
64.888964805 1548.0
64.893888661 1587.0
64.898812517 1557.0
64.903736373 1477.0
64.908660229 1408.0
64.913584085 1480.0
64.918507941 1470.0
64.923431797 1370.0
64.928355653 1323.0
64.933279509 1276.0
64.938203365 1175.0
64.943127221 1172.0
64.948051077 1143.0
64.952974933 1167.0
64.957898789 1065.0
64.962822645 971.0
64.967746501 977.0
64.972670357 981.0
64.977594213 970.0
64.982518069 880.0
64.987441925 843.0
64.992365781 778.0
64.997289637 767.0
65.002213493 789.0
65.007137349 735.0
65.012061205 753.0
65.016985061 675.0
65.021908917 642.0
65.026832773 612.0
65.031756629 566.0
65.036680485 577.0
65.041604341 577.0
65.046528197 536.0
65.051452053 500.0
65.056375909 471.0
65.061299765 471.0
65.066223621 478.0
65.071147477 455.0
65.076071333 443.0
65.080995189 380.0
65.085919045 413.0
65.090842901 366.0
65.095766757 363.0
65.100690613 368.0
65.105614469 367.0
65.110538325 317.0
65.115462181 360.0
65.120386037 296.0
65.125309893 309.0
65.130233749 293.0
65.135157605 268.0
65.140081461 312.0
65.145005317 310.0
65.149929173 257.0
65.154853029 222.0
65.159776885 264.0
65.164700741 258.0
65.169624597 226.0
65.174548453 229.0
65.179472309 227.0
65.184396165 222.0
65.189320022 247.0
65.194243878 202.0
65.199167734 183.0
65.204091590 203.0
65.209015446 185.0
65.213939302 200.0
65.218863158 187.0
65.223787014 169.0
65.228710870 192.0
65.233634726 160.0
65.238558582 187.0
65.243482438 159.0
65.248406294 185.0
65.253330150 137.0
65.258254006 175.0
65.263177862 135.0
65.268101718 136.0
65.273025574 144.0
65.277949430 157.0
65.282873286 145.0
65.287797142 143.0
65.292720998 154.0
65.297644854 138.0
65.302568710 120.0
65.307492566 162.0
65.312416422 140.0
65.317340278 121.0
65.322264134 139.0
65.327187990 112.0
65.332111846 103.0
65.337035702 120.0
65.341959558 120.0
65.346883414 125.0
65.351807270 103.0
65.356731126 119.0
65.361654982 102.0
65.366578838 107.0
65.371502694 119.0
65.376426550 109.0
65.381350406 91.0
65.386274262 95.0
65.391198118 110.0
65.396121974 99.0
65.401045830 122.0
65.405969686 106.0
65.410893542 100.0
65.415817398 107.0
65.420741254 110.0
65.425665110 106.0
65.430588966 88.0
65.435512822 91.0
65.440436678 110.0
65.445360534 84.0
65.450284390 81.0
65.455208246 83.0
65.460132102 81.0
65.465055958 85.0
65.469979814 101.0
65.474903670 81.0
65.479827526 78.0
65.484751382 90.0
65.489675238 67.0
65.494599094 84.0
65.499522950 67.0
65.504446806 66.0
65.509370662 75.0
65.514294518 67.0
65.519218374 73.0
65.524142230 74.0
65.529066086 86.0
65.533989942 79.0
65.538913798 61.0
65.543837654 71.0
65.548761510 86.0
65.553685366 75.0
65.558609223 86.0
65.563533079 81.0
65.568456935 77.0
65.573380791 90.0
65.578304647 80.0
65.583228503 89.0
65.588152359 60.0
65.593076215 62.0
65.598000071 79.0
65.602923927 77.0
65.607847783 73.0
65.612771639 70.0
65.617695495 70.0
65.622619351 77.0
65.627543207 76.0
65.632467063 80.0
65.637390919 77.0
65.642314775 70.0
65.647238631 68.0
65.652162487 61.0
65.657086343 62.0
65.662010199 67.0
65.666934055 75.0
65.671857911 79.0
65.676781767 55.0
65.681705623 84.0
65.686629479 57.0
65.691553335 61.0
65.696477191 59.0
65.701401047 49.0
65.706324903 57.0
65.711248759 73.0
65.716172615 66.0
65.721096471 67.0
65.726020327 55.0
65.730944183 69.0
65.735868039 56.0
65.740791895 55.0
65.745715751 65.0
65.750639607 75.0
65.755563463 63.0
65.760487319 79.0
65.765411175 68.0
65.770335031 84.0
65.775258887 66.0
65.780182743 63.0
65.785106599 70.0
65.790030455 62.0
65.794954311 51.0
65.799878167 70.0
65.804802023 71.0
65.809725879 63.0
65.814649735 64.0
65.819573591 61.0
65.824497447 61.0
65.829421303 65.0
65.834345159 64.0
65.839269015 73.0
65.844192871 66.0
65.849116727 69.0
65.854040583 59.0
65.858964439 68.0
65.863888295 68.0
65.868812151 62.0
65.873736007 67.0
65.878659863 62.0
65.883583719 49.0
65.888507575 62.0
65.893431431 72.0
65.898355287 62.0
65.903279143 61.0
65.908202999 72.0
65.913126855 70.0
65.918050711 77.0
65.922974567 77.0
65.927898424 65.0
65.932822280 69.0
65.937746136 67.0
65.942669992 62.0
65.947593848 60.0
65.952517704 58.0
65.957441560 67.0
65.962365416 64.0
65.967289272 61.0
65.972213128 62.0
65.977136984 69.0
65.982060840 48.0
65.986984696 68.0
65.991908552 74.0
65.996832408 65.0
66.001756264 77.0
66.006680120 74.0
66.011603976 53.0
66.016527832 72.0
66.021451688 73.0
66.026375544 77.0
66.031299400 60.0
66.036223256 71.0
66.041147112 60.0
66.046070968 58.0
66.050994824 81.0
66.055918680 67.0
66.060842536 75.0
66.065766392 70.0
66.070690248 63.0
66.075614104 65.0
66.080537960 81.0
66.085461816 59.0
66.090385672 63.0
66.095309528 59.0
66.100233384 72.0
66.105157240 68.0
66.110081096 67.0
66.115004952 74.0
66.119928808 74.0
66.124852664 74.0
66.129776520 77.0
66.134700376 71.0
66.139624232 70.0
66.144548088 61.0
66.149471944 58.0
66.154395800 73.0
66.159319656 70.0
66.164243512 69.0
66.169167368 59.0
66.174091224 70.0
66.179015080 52.0
66.183938936 74.0
66.188862792 71.0
66.193786648 74.0
66.198710504 79.0
66.203634360 66.0
66.208558216 79.0
66.213482072 69.0
66.218405928 66.0
66.223329784 68.0
66.228253640 82.0
66.233177496 71.0
66.238101352 80.0
66.243025208 66.0
66.247949064 57.0
66.252872920 77.0
66.257796776 86.0
66.262720632 75.0
66.267644488 87.0
66.272568344 69.0
66.277492200 64.0
66.282416056 68.0
66.287339912 60.0
66.292263768 71.0
66.297187625 81.0
66.302111481 68.0
66.307035337 82.0
66.311959193 98.0
66.316883049 88.0
66.321806905 76.0
66.326730761 72.0
66.331654617 75.0
66.336578473 65.0
66.341502329 73.0
66.346426185 98.0
66.351350041 80.0
66.356273897 79.0
66.361197753 96.0
66.366121609 80.0
66.371045465 84.0
66.375969321 82.0
66.380893177 80.0
66.385817033 76.0
66.390740889 80.0
66.395664745 84.0
66.400588601 93.0
66.405512457 80.0
66.410436313 75.0
66.415360169 85.0
66.420284025 76.0
66.425207881 96.0
66.430131737 86.0
66.435055593 87.0
66.439979449 87.0
66.444903305 85.0
66.449827161 76.0
66.454751017 82.0
66.459674873 81.0
66.464598729 101.0
66.469522585 82.0
66.474446441 83.0
66.479370297 81.0
66.484294153 103.0
66.489218009 86.0
66.494141865 91.0
66.499065721 97.0
66.503989577 99.0
66.508913433 95.0
66.513837289 86.0
66.518761145 66.0
66.523685001 93.0
66.528608857 88.0
66.533532713 96.0
66.538456569 96.0
66.543380425 83.0
66.548304281 102.0
66.553228137 95.0
66.558151993 99.0
66.563075849 98.0
66.567999705 107.0
66.572923561 75.0
66.577847417 102.0
66.582771273 106.0
66.587695129 88.0
66.592618985 107.0
66.597542841 75.0
66.602466697 80.0
66.607390553 101.0
66.612314409 96.0
66.617238265 100.0
66.622162121 92.0
66.627085977 89.0
66.632009833 100.0
66.636933689 105.0
66.641857545 112.0
66.646781401 103.0
66.651705257 88.0
66.656629113 103.0
66.661552969 115.0
66.666476826 97.0
66.671400682 102.0
66.676324538 96.0
66.681248394 104.0
66.686172250 94.0
66.691096106 101.0
66.696019962 96.0
66.700943818 101.0
66.705867674 104.0
66.710791530 98.0
66.715715386 119.0
66.720639242 116.0
66.725563098 112.0
66.730486954 98.0
66.735410810 116.0
66.740334666 128.0
66.745258522 121.0
66.750182378 102.0
66.755106234 121.0
66.760030090 86.0
66.764953946 117.0
66.769877802 123.0
66.774801658 122.0
66.779725514 144.0
66.784649370 109.0
66.789573226 112.0
66.794497082 112.0
66.799420938 118.0
66.804344794 112.0
66.809268650 121.0
66.814192506 113.0
66.819116362 105.0
66.824040218 115.0
66.828964074 137.0
66.833887930 145.0
66.838811786 125.0
66.843735642 112.0
66.848659498 123.0
66.853583354 135.0
66.858507210 120.0
66.863431066 128.0
66.868354922 132.0
66.873278778 133.0
66.878202634 126.0
66.883126490 134.0
66.888050346 128.0
66.892974202 124.0
66.897898058 117.0
66.902821914 127.0
66.907745770 111.0
66.912669626 131.0
66.917593482 127.0
66.922517338 124.0
66.927441194 161.0
66.932365050 129.0
66.937288906 140.0
66.942212762 138.0
66.947136618 111.0
66.952060474 124.0
66.956984330 144.0
66.961908186 114.0
66.966832042 133.0
66.971755898 120.0
66.976679754 154.0
66.981603610 141.0
66.986527466 132.0
66.991451322 124.0
66.996375178 157.0
67.001299034 155.0
67.006222890 150.0
67.011146746 133.0
67.016070602 139.0
67.020994458 125.0
67.025918314 146.0
67.030842170 152.0
67.035766026 148.0
67.040689883 138.0
67.045613739 153.0
67.050537595 156.0
67.055461451 146.0
67.060385307 146.0
67.065309163 170.0
67.070233019 153.0
67.075156875 169.0
67.080080731 161.0
67.085004587 142.0
67.089928443 156.0
67.094852299 155.0
67.099776155 160.0
67.104700011 149.0
67.109623867 154.0
67.114547723 155.0
67.119471579 188.0
67.124395435 171.0
67.129319291 186.0
67.134243147 139.0
67.139167003 158.0
67.144090859 154.0
67.149014715 177.0
67.153938571 181.0
67.158862427 173.0
67.163786283 159.0
67.168710139 154.0
67.173633995 161.0
67.178557851 177.0
67.183481707 167.0
67.188405563 174.0
67.193329419 169.0
67.198253275 177.0
67.203177131 174.0
67.208100987 185.0
67.213024843 170.0
67.217948699 174.0
67.222872555 196.0
67.227796411 195.0
67.232720267 169.0
67.237644123 178.0
67.242567979 178.0
67.247491835 168.0
67.252415691 199.0
67.257339547 194.0
67.262263403 183.0
67.267187259 194.0
67.272111115 170.0
67.277034971 192.0
67.281958827 222.0
67.286882683 208.0
67.291806539 208.0
67.296730395 185.0
67.301654251 201.0
67.306578107 217.0
67.311501963 210.0
67.316425819 203.0
67.321349675 187.0
67.326273531 203.0
67.331197387 194.0
67.336121243 200.0
67.341045099 275.0
67.345968955 265.0
67.350892811 287.0
67.355816667 255.0
67.360740523 265.0
67.365664379 257.0
67.370588235 258.0
67.375512091 202.0
67.380435947 281.0
67.385359803 261.0
67.390283659 220.0
67.395207515 279.0
67.400131371 268.0
67.405055227 278.0
67.409979084 274.0
67.414902940 310.0
67.419826796 295.0
67.424750652 301.0
67.429674508 278.0
67.434598364 284.0
67.439522220 315.0
67.444446076 310.0
67.449369932 301.0
67.454293788 286.0
67.459217644 329.0
67.464141500 293.0
67.469065356 323.0
67.473989212 309.0
67.478913068 326.0
67.483836924 337.0
67.488760780 285.0
67.493684636 299.0
67.498608492 326.0
67.503532348 312.0
67.508456204 340.0
67.513380060 303.0
67.518303916 317.0
67.523227772 367.0
67.528151628 360.0
67.533075484 337.0
67.537999340 363.0
67.542923196 356.0
67.547847052 313.0
67.552770908 359.0
67.557694764 392.0
67.562618620 390.0
67.567542476 355.0
67.572466332 382.0
67.577390188 354.0
67.582314044 370.0
67.587237900 369.0
67.592161756 402.0
67.597085612 371.0
67.602009468 389.0
67.606933324 443.0
67.611857180 442.0
67.616781036 429.0
67.621704892 434.0
67.626628748 490.0
67.631552604 476.0
67.636476460 433.0
67.641400316 500.0
67.646324172 517.0
67.651248028 520.0
67.656171884 554.0
67.661095740 554.0
67.666019596 592.0
67.670943452 602.0
67.675867308 585.0
67.680791164 625.0
67.685715020 630.0
67.690638876 661.0
67.695562732 733.0
67.700486588 717.0
67.705410444 819.0
67.710334300 874.0
67.715258156 873.0
67.720182012 947.0
67.725105868 979.0
67.730029724 987.0
67.734953580 1074.0
67.739877436 1112.0
67.744801292 1140.0
67.749725148 1210.0
67.754649004 1180.0
67.759572860 1301.0
67.764496716 1346.0
67.769420572 1341.0
67.774344428 1349.0
67.779268285 1399.0
67.784192141 1414.0
67.789115997 1538.0
67.794039853 1372.0
67.798963709 1465.0
67.803887565 1426.0
67.808811421 1502.0
67.813735277 1495.0
67.818659133 1539.0
67.823582989 1406.0
67.828506845 1479.0
67.833430701 1460.0
67.838354557 1409.0
67.843278413 1278.0
67.848202269 1357.0
67.853126125 1388.0
67.858049981 1327.0
67.862973837 1346.0
67.867897693 1393.0
67.872821549 1305.0
67.877745405 1429.0
67.882669261 1365.0
67.887593117 1426.0
67.892516973 1456.0
67.897440829 1499.0
67.902364685 1573.0
67.907288541 1580.0
67.912212397 1670.0
67.917136253 1680.0
67.922060109 1720.0
67.926983965 1752.0
67.931907821 1849.0
67.936831677 2008.0
67.941755533 2093.0
67.946679389 2131.0
67.951603245 2264.0
67.956527101 2367.0
67.961450957 2550.0
67.966374813 2638.0
67.971298669 2933.0
67.976222525 3063.0
67.981146381 3154.0
67.986070237 3518.0
67.990994093 3716.0
67.995917949 4026.0
68.000841805 4346.0
68.005765661 4741.0
68.010689517 5382.0
68.015613373 5783.0
68.020537229 6414.0
68.025461085 7194.0
68.030384941 7850.0
68.035308797 9231.0
68.040232653 10343.0
68.045156509 12183.0
68.050080365 14487.0
68.055004221 17302.0
68.059928077 21373.0
68.064851933 27086.0
68.069775789 35876.0
68.074699645 48710.0
68.079623501 66518.0
68.084547357 87429.0
68.089471213 108486.0
68.094395069 124477.0
68.099318925 137246.0
68.104242781 143624.0
68.109166637 149298.0
68.114090493 149962.0
68.119014349 148601.0
68.123938205 140938.0
68.128862061 128354.0
68.133785917 109361.0
68.138709773 87965.0
68.143633629 69156.0
68.148557486 53611.0
68.153481342 41903.0
68.158405198 33088.0
68.163329054 26798.0
68.168252910 21948.0
68.173176766 17700.0
68.178100622 14873.0
68.183024478 12887.0
68.187948334 11383.0
68.192872190 9906.0
68.197796046 9140.0
68.202719902 8400.0
68.207643758 8132.0
68.212567614 7904.0
68.217491470 7826.0
68.222415326 7903.0
68.227339182 8008.0
68.232263038 8522.0
68.237186894 9313.0
68.242110750 10396.0
68.247034606 11794.0
68.251958462 13873.0
68.256882318 16650.0
68.261806174 20973.0
68.266730030 27266.0
68.271653886 34993.0
68.276577742 43953.0
68.281501598 52970.0
68.286425454 61059.0
68.291349310 67109.0
68.296273166 71930.0
68.301197022 74517.0
68.306120878 75683.0
68.311044734 74578.0
68.315968590 71061.0
68.320892446 65190.0
68.325816302 57008.0
68.330740158 48102.0
68.335664014 39093.0
68.340587870 31491.0
68.345511726 24639.0
68.350435582 19941.0
68.355359438 15765.0
68.360283294 12913.0
68.365207150 10564.0
68.370131006 8978.0
68.375054862 7519.0
68.379978718 6586.0
68.384902574 5704.0
68.389826430 4946.0
68.394750286 4618.0
68.399674142 3904.0
68.404597998 3646.0
68.409521854 3451.0
68.414445710 3151.0
68.419369566 2899.0
68.424293422 2649.0
68.429217278 2580.0
68.434141134 2421.0
68.439064990 2254.0
68.443988846 2171.0
68.448912702 2039.0
68.453836558 1971.0
68.458760414 1813.0
68.463684270 1800.0
68.468608126 1694.0
68.473531982 1649.0
68.478455838 1602.0
68.483379694 1596.0
68.488303550 1499.0
68.493227406 1459.0
68.498151262 1399.0
68.503075118 1367.0
68.507998974 1306.0
68.512922830 1260.0
68.517846687 1267.0
68.522770543 1169.0
68.527694399 1159.0
68.532618255 1141.0
68.537542111 1101.0
68.542465967 1052.0
68.547389823 1036.0
68.552313679 976.0
68.557237535 944.0
68.562161391 954.0
68.567085247 974.0
68.572009103 927.0
68.576932959 894.0
68.581856815 856.0
68.586780671 883.0
68.591704527 820.0
68.596628383 787.0
68.601552239 808.0
68.606476095 816.0
68.611399951 712.0
68.616323807 709.0
68.621247663 720.0
68.626171519 745.0
68.631095375 749.0
68.636019231 659.0
68.640943087 702.0
68.645866943 675.0
68.650790799 656.0
68.655714655 597.0
68.660638511 627.0
68.665562367 623.0
68.670486223 654.0
68.675410079 553.0
68.680333935 633.0
68.685257791 615.0
68.690181647 576.0
68.695105503 612.0
68.700029359 568.0
68.704953215 512.0
68.709877071 543.0
68.714800927 538.0
68.719724783 541.0
68.724648639 536.0
68.729572495 517.0
68.734496351 531.0
68.739420207 530.0
68.744344063 477.0
68.749267919 502.0
68.754191775 512.0
68.759115631 469.0
68.764039487 459.0
68.768963343 481.0
68.773887199 459.0
68.778811055 435.0
68.783734911 430.0
68.788658767 401.0
68.793582623 425.0
68.798506479 399.0
68.803430335 388.0
68.808354191 408.0
68.813278047 402.0
68.818201903 380.0
68.823125759 387.0
68.828049615 382.0
68.832973471 378.0
68.837897327 383.0
68.842821183 367.0
68.847745039 395.0
68.852668895 358.0
68.857592751 350.0
68.862516607 398.0
68.867440463 352.0
68.872364319 345.0
68.877288175 357.0
68.882212031 344.0
68.887135887 355.0
68.892059744 354.0
68.896983600 368.0
68.901907456 326.0
68.906831312 343.0
68.911755168 325.0
68.916679024 308.0
68.921602880 326.0
68.926526736 323.0
68.931450592 300.0
68.936374448 319.0
68.941298304 278.0
68.946222160 327.0
68.951146016 283.0
68.956069872 331.0
68.960993728 284.0
68.965917584 331.0
68.970841440 324.0
68.975765296 300.0
68.980689152 277.0
68.985613008 265.0
68.990536864 313.0
68.995460720 275.0
69.000384576 302.0
69.005308432 277.0
69.010232288 266.0
69.015156144 277.0
69.020080000 289.0
69.025003856 206.0
69.029927712 284.0
69.034851568 205.0
69.039775424 259.0
69.044699280 266.0
69.049623136 257.0
69.054546992 261.0
69.059470848 276.0
69.064394704 260.0
69.069318560 201.0
69.074242416 263.0
69.079166272 205.0
69.084090128 198.0
69.089013984 257.0
69.093937840 198.0
69.098861696 204.0
69.103785552 206.0
69.108709408 195.0
69.113633264 259.0
69.118557120 214.0
69.123480976 189.0
69.128404832 209.0
69.133328688 193.0
69.138252544 170.0
69.143176400 182.0
69.148100256 190.0
69.153024112 212.0
69.157947968 195.0
69.162871824 182.0
69.167795680 174.0
69.172719536 194.0
69.177643392 178.0
69.182567248 186.0
69.187491104 171.0
69.192414960 176.0
69.197338816 170.0
69.202262672 149.0
69.207186528 181.0
69.212110384 155.0
69.217034240 168.0
69.221958096 145.0
69.226881952 147.0
69.231805808 162.0
69.236729664 139.0
69.241653520 175.0
69.246577376 142.0
69.251501232 148.0
69.256425088 145.0
69.261348945 152.0
69.266272801 150.0
69.271196657 152.0
69.276120513 149.0
69.281044369 137.0
69.285968225 147.0
69.290892081 132.0
69.295815937 151.0
69.300739793 138.0
69.305663649 153.0
69.310587505 133.0
69.315511361 145.0
69.320435217 123.0
69.325359073 125.0
69.330282929 145.0
69.335206785 137.0
69.340130641 140.0
69.345054497 134.0
69.349978353 134.0
69.354902209 144.0
69.359826065 125.0
69.364749921 121.0
69.369673777 120.0
69.374597633 133.0
69.379521489 137.0
69.384445345 128.0
69.389369201 146.0
69.394293057 123.0
69.399216913 135.0
69.404140769 120.0
69.409064625 124.0
69.413988481 132.0
69.418912337 112.0
69.423836193 122.0
69.428760049 120.0
69.433683905 114.0
69.438607761 114.0
69.443531617 97.0
69.448455473 114.0
69.453379329 105.0
69.458303185 87.0
69.463227041 112.0
69.468150897 116.0
69.473074753 97.0
69.477998609 101.0
69.482922465 88.0
69.487846321 111.0
69.492770177 114.0
69.497694033 133.0
69.502617889 87.0
69.507541745 103.0
69.512465601 110.0
69.517389457 102.0
69.522313313 79.0
69.527237169 98.0
69.532161025 91.0
69.537084881 100.0
69.542008737 95.0
69.546932593 98.0
69.551856449 91.0
69.556780305 91.0
69.561704161 108.0
69.566628017 101.0
69.571551873 84.0
69.576475729 104.0
69.581399585 91.0
69.586323441 89.0
69.591247297 98.0
69.596171153 100.0
69.601095009 78.0
69.606018865 80.0
69.610942721 77.0
69.615866577 87.0
69.620790433 83.0
69.625714289 86.0
69.630638146 99.0
69.635562002 85.0
69.640485858 83.0
69.645409714 81.0
69.650333570 96.0
69.655257426 74.0
69.660181282 76.0
69.665105138 81.0
69.670028994 87.0
69.674952850 83.0
69.679876706 93.0
69.684800562 94.0
69.689724418 65.0
69.694648274 65.0
69.699572130 71.0
69.704495986 91.0
69.709419842 63.0
69.714343698 88.0
69.719267554 80.0
69.724191410 80.0
69.729115266 67.0
69.734039122 91.0
69.738962978 72.0
69.743886834 74.0
69.748810690 66.0
69.753734546 71.0
69.758658402 75.0
69.763582258 73.0
69.768506114 72.0
69.773429970 69.0
69.778353826 72.0
69.783277682 69.0
69.788201538 64.0
69.793125394 76.0
69.798049250 79.0
69.802973106 58.0
69.807896962 62.0
69.812820818 60.0
69.817744674 67.0
69.822668530 81.0
69.827592386 58.0
69.832516242 66.0
69.837440098 57.0
69.842363954 60.0
69.847287810 71.0
69.852211666 65.0
69.857135522 68.0
69.862059378 60.0
69.866983234 81.0
69.871907090 60.0
69.876830946 63.0
69.881754802 59.0
69.886678658 50.0
69.891602514 56.0
69.896526370 67.0
69.901450226 74.0
69.906374082 61.0
69.911297938 59.0
69.916221794 57.0
69.921145650 58.0
69.926069506 55.0
69.930993362 62.0
69.935917218 53.0
69.940841074 63.0
69.945764930 60.0
69.950688786 60.0
69.955612642 51.0
69.960536498 44.0
69.965460354 51.0
69.970384210 50.0
69.975308066 56.0
69.980231922 52.0
69.985155778 44.0
69.990079634 51.0
69.995003490 61.0
69.999927347 61.0
70.004851203 57.0
70.009775059 46.0
70.014698915 58.0
70.019622771 58.0
70.024546627 54.0
70.029470483 65.0
70.034394339 62.0
70.039318195 45.0
70.044242051 54.0
70.049165907 44.0
70.054089763 58.0
70.059013619 50.0
70.063937475 41.0
70.068861331 59.0
70.073785187 49.0
70.078709043 47.0
70.083632899 43.0
70.088556755 28.0
70.093480611 50.0
70.098404467 47.0
70.103328323 49.0
70.108252179 50.0
70.113176035 44.0
70.118099891 50.0
70.123023747 50.0
70.127947603 45.0
70.132871459 49.0
70.137795315 36.0
70.142719171 46.0
70.147643027 57.0
70.152566883 45.0
70.157490739 47.0
70.162414595 44.0
70.167338451 49.0
70.172262307 43.0
70.177186163 47.0
70.182110019 45.0
70.187033875 40.0
70.191957731 46.0
70.196881587 50.0
70.201805443 35.0
70.206729299 42.0
70.211653155 51.0
70.216577011 54.0
70.221500867 37.0
70.226424723 44.0
70.231348579 40.0
70.236272435 38.0
70.241196291 31.0
70.246120147 39.0
70.251044003 55.0
70.255967859 48.0
70.260891715 43.0
70.265815571 52.0
70.270739427 40.0
70.275663283 32.0
70.280587139 40.0
70.285510995 32.0
70.290434851 35.0
70.295358707 41.0
70.300282563 36.0
70.305206419 44.0
70.310130275 37.0
70.315054131 39.0
70.319977987 40.0
70.324901843 39.0
70.329825699 46.0
70.334749555 47.0
70.339673411 32.0
70.344597267 40.0
70.349521123 49.0
70.354444979 38.0
70.359368835 33.0
70.364292691 43.0
70.369216548 36.0
70.374140404 36.0
70.379064260 37.0
70.383988116 33.0
70.388911972 38.0
70.393835828 35.0
70.398759684 34.0
70.403683540 21.0
70.408607396 32.0
70.413531252 38.0
70.418455108 38.0
70.423378964 35.0
70.428302820 41.0
70.433226676 32.0
70.438150532 37.0
70.443074388 39.0
70.447998244 36.0
70.452922100 32.0
70.457845956 32.0
70.462769812 38.0
70.467693668 40.0
70.472617524 32.0
70.477541380 37.0
70.482465236 43.0
70.487389092 39.0
70.492312948 29.0
70.497236804 46.0
70.502160660 23.0
70.507084516 38.0
70.512008372 32.0
70.516932228 34.0
70.521856084 34.0
70.526779940 25.0
70.531703796 38.0
70.536627652 31.0
70.541551508 31.0
70.546475364 32.0
70.551399220 18.0
70.556323076 21.0
70.561246932 28.0
70.566170788 37.0
70.571094644 29.0
70.576018500 33.0
70.580942356 27.0
70.585866212 30.0
70.590790068 21.0
70.595713924 31.0
70.600637780 39.0
70.605561636 30.0
70.610485492 32.0
70.615409348 28.0
70.620333204 28.0
70.625257060 30.0
70.630180916 43.0
70.635104772 36.0
70.640028628 27.0
70.644952484 29.0
70.649876340 38.0
70.654800196 36.0
70.659724052 28.0
70.664647908 29.0
70.669571764 28.0
70.674495620 20.0
70.679419476 37.0
70.684343332 28.0
70.689267188 40.0
70.694191044 30.0
70.699114900 21.0
70.704038756 26.0
70.708962612 39.0
70.713886468 30.0
70.718810324 28.0
70.723734180 31.0
70.728658036 28.0
70.733581892 34.0
70.738505748 37.0
70.743429605 30.0
70.748353461 18.0
70.753277317 35.0
70.758201173 26.0
70.763125029 40.0
70.768048885 23.0
70.772972741 24.0
70.777896597 27.0
70.782820453 29.0
70.787744309 23.0
70.792668165 26.0
70.797592021 20.0
70.802515877 25.0
70.807439733 25.0
70.812363589 31.0
70.817287445 31.0
70.822211301 25.0
70.827135157 35.0
70.832059013 27.0
70.836982869 24.0
70.841906725 34.0
70.846830581 25.0
70.851754437 28.0
70.856678293 34.0
70.861602149 38.0
70.866526005 27.0
70.871449861 34.0
70.876373717 21.0
70.881297573 26.0
70.886221429 26.0
70.891145285 28.0
70.896069141 29.0
70.900992997 17.0
70.905916853 22.0
70.910840709 22.0
70.915764565 33.0
70.920688421 21.0
70.925612277 25.0
70.930536133 28.0
70.935459989 18.0
70.940383845 30.0
70.945307701 22.0
70.950231557 32.0
70.955155413 19.0
70.960079269 32.0
70.965003125 18.0
70.969926981 29.0
70.974850837 29.0
70.979774693 33.0
70.984698549 20.0
70.989622405 25.0
70.994546261 25.0
70.999470117 28.0
71.004393973 26.0
71.009317829 32.0
71.014241685 22.0
71.019165541 23.0
71.024089397 23.0
71.029013253 30.0
71.033937109 23.0
71.038860965 19.0
71.043784821 25.0
71.048708677 23.0
71.053632533 24.0
71.058556389 19.0
71.063480245 26.0
71.068404101 30.0
71.073327957 30.0
71.078251813 21.0
71.083175669 21.0
71.088099525 28.0
71.093023381 17.0
71.097947237 22.0
71.102871093 23.0
71.107794949 32.0
71.112718806 16.0
71.117642662 21.0
71.122566518 26.0
71.127490374 24.0
71.132414230 30.0
71.137338086 29.0
71.142261942 31.0
71.147185798 21.0
71.152109654 22.0
71.157033510 22.0
71.161957366 25.0
71.166881222 32.0
71.171805078 23.0
71.176728934 20.0
71.181652790 25.0
71.186576646 14.0
71.191500502 22.0
71.196424358 20.0
71.201348214 22.0
71.206272070 20.0
71.211195926 22.0
71.216119782 20.0
71.221043638 24.0
71.225967494 18.0
71.230891350 28.0
71.235815206 21.0
71.240739062 25.0
71.245662918 26.0
71.250586774 18.0
71.255510630 24.0
71.260434486 22.0
71.265358342 25.0
71.270282198 23.0
71.275206054 24.0
71.280129910 21.0
71.285053766 20.0
71.289977622 25.0
71.294901478 23.0
71.299825334 14.0
71.304749190 19.0
71.309673046 22.0
71.314596902 28.0
71.319520758 21.0
71.324444614 29.0
71.329368470 17.0
71.334292326 23.0
71.339216182 13.0
71.344140038 22.0
71.349063894 18.0
71.353987750 18.0
71.358911606 14.0
71.363835462 29.0
71.368759318 25.0
71.373683174 31.0
71.378607030 22.0
71.383530886 8.0
71.388454742 17.0
71.393378598 23.0
71.398302454 22.0
71.403226310 18.0
71.408150166 22.0
71.413074022 23.0
71.417997878 30.0
71.422921734 29.0
71.427845590 19.0
71.432769446 18.0
71.437693302 31.0
71.442617158 23.0
71.447541014 24.0
71.452464870 18.0
71.457388726 18.0
71.462312582 20.0
71.467236438 19.0
71.472160294 23.0
71.477084150 25.0
71.482008007 21.0
71.486931863 17.0
71.491855719 17.0
71.496779575 23.0
71.501703431 22.0
71.506627287 19.0
71.511551143 16.0
71.516474999 23.0
71.521398855 19.0
71.526322711 34.0
71.531246567 16.0
71.536170423 14.0
71.541094279 20.0
71.546018135 21.0
71.550941991 23.0
71.555865847 20.0
71.560789703 20.0
71.565713559 20.0
71.570637415 16.0
71.575561271 17.0
71.580485127 19.0
71.585408983 22.0
71.590332839 21.0
71.595256695 23.0
71.600180551 23.0
71.605104407 17.0
71.610028263 19.0
71.614952119 13.0
71.619875975 14.0
71.624799831 14.0
71.629723687 17.0
71.634647543 23.0
71.639571399 20.0
71.644495255 24.0
71.649419111 19.0
71.654342967 22.0
71.659266823 19.0
71.664190679 19.0
71.669114535 18.0
71.674038391 26.0
71.678962247 9.0
71.683886103 18.0
71.688809959 16.0
71.693733815 18.0
71.698657671 18.0
71.703581527 17.0
71.708505383 23.0
71.713429239 17.0
71.718353095 14.0
71.723276951 15.0
71.728200807 22.0
71.733124663 20.0
71.738048519 21.0
71.742972375 13.0
71.747896231 19.0
71.752820087 23.0
71.757743943 30.0
71.762667799 28.0
71.767591655 20.0
71.772515511 24.0
71.777439367 21.0
71.782363223 17.0
71.787287079 23.0
71.792210935 23.0
71.797134791 8.0
71.802058647 12.0
71.806982503 15.0
71.811906359 18.0
71.816830215 14.0
71.821754071 16.0
71.826677927 25.0
71.831601783 20.0
71.836525639 20.0
71.841449495 20.0
71.846373351 18.0
71.851297208 13.0
71.856221064 15.0
71.861144920 16.0
71.866068776 18.0
71.870992632 15.0
71.875916488 14.0
71.880840344 17.0
71.885764200 17.0
71.890688056 22.0
71.895611912 22.0
71.900535768 16.0
71.905459624 13.0
71.910383480 21.0
71.915307336 15.0
71.920231192 22.0
71.925155048 16.0
71.930078904 23.0
71.935002760 30.0
71.939926616 25.0
71.944850472 19.0
71.949774328 20.0
71.954698184 17.0
71.959622040 22.0
71.964545896 19.0
71.969469752 16.0
71.974393608 18.0
71.979317464 15.0
71.984241320 20.0
71.989165176 17.0
71.994089032 13.0
71.999012888 19.0
72.003936744 15.0
72.008860600 16.0
72.013784456 24.0
72.018708312 15.0
72.023632168 16.0
72.028556024 11.0
72.033479880 22.0
72.038403736 17.0
72.043327592 18.0
72.048251448 14.0
72.053175304 12.0
72.058099160 24.0
72.063023016 17.0
72.067946872 15.0
72.072870728 13.0
72.077794584 22.0
72.082718440 21.0
72.087642296 15.0
72.092566152 17.0
72.097490008 20.0
72.102413864 17.0
72.107337720 21.0
72.112261576 17.0
72.117185432 16.0
72.122109288 18.0
72.127033144 16.0
72.131957000 21.0
72.136880856 25.0
72.141804712 21.0
72.146728568 17.0
72.151652424 17.0
72.156576280 14.0
72.161500136 18.0
72.166423992 18.0
72.171347848 18.0
72.176271704 14.0
72.181195560 17.0
72.186119416 17.0
72.191043272 14.0
72.195967128 17.0
72.200890984 13.0
72.205814840 24.0
72.210738696 14.0
72.215662552 14.0
72.220586409 17.0
72.225510265 11.0
72.230434121 20.0
72.235357977 20.0
72.240281833 26.0
72.245205689 27.0
72.250129545 16.0
72.255053401 18.0
72.259977257 12.0
72.264901113 10.0
72.269824969 18.0
72.274748825 14.0
72.279672681 24.0
72.284596537 15.0
72.289520393 14.0
72.294444249 21.0
72.299368105 18.0
72.304291961 20.0
72.309215817 13.0
72.314139673 16.0
72.319063529 15.0
72.323987385 18.0
72.328911241 14.0
72.333835097 19.0
72.338758953 11.0
72.343682809 18.0
72.348606665 22.0
72.353530521 13.0
72.358454377 23.0
72.363378233 17.0
72.368302089 21.0
72.373225945 18.0
72.378149801 17.0
72.383073657 16.0
72.387997513 15.0
72.392921369 16.0
72.397845225 10.0
72.402769081 8.0
72.407692937 15.0
72.412616793 12.0
72.417540649 8.0
72.422464505 18.0
72.427388361 15.0
72.432312217 16.0
72.437236073 17.0
72.442159929 15.0
72.447083785 11.0
72.452007641 16.0
72.456931497 9.0
72.461855353 17.0
72.466779209 19.0
72.471703065 10.0
72.476626921 24.0
72.481550777 18.0
72.486474633 11.0
72.491398489 12.0
72.496322345 16.0
72.501246201 19.0
72.506170057 23.0
72.511093913 12.0
72.516017769 19.0
72.520941625 12.0
72.525865481 17.0
72.530789337 14.0
72.535713193 19.0
72.540637049 20.0
72.545560905 24.0
72.550484761 22.0
72.555408617 18.0
72.560332473 17.0
72.565256329 17.0
72.570180185 14.0
72.575104041 7.0
72.580027897 13.0
72.584951753 17.0
72.589875609 11.0
72.594799466 17.0
72.599723322 17.0
72.604647178 12.0
72.609571034 22.0
72.614494890 14.0
72.619418746 18.0
72.624342602 14.0
72.629266458 16.0
72.634190314 15.0
72.639114170 17.0
72.644038026 19.0
72.648961882 16.0
72.653885738 11.0
72.658809594 21.0
72.663733450 18.0
72.668657306 17.0
72.673581162 12.0
72.678505018 15.0
72.683428874 18.0
72.688352730 14.0
72.693276586 18.0
72.698200442 11.0
72.703124298 15.0
72.708048154 16.0
72.712972010 16.0
72.717895866 17.0
72.722819722 21.0
72.727743578 19.0
72.732667434 16.0
72.737591290 14.0
72.742515146 16.0
72.747439002 23.0
72.752362858 16.0
72.757286714 13.0
72.762210570 16.0
72.767134426 18.0
72.772058282 14.0
72.776982138 13.0
72.781905994 10.0
72.786829850 18.0
72.791753706 9.0
72.796677562 18.0
72.801601418 14.0
72.806525274 17.0
72.811449130 19.0
72.816372986 16.0
72.821296842 10.0
72.826220698 20.0
72.831144554 15.0
72.836068410 12.0
72.840992266 9.0
72.845916122 19.0
72.850839978 23.0
72.855763834 16.0
72.860687690 12.0
72.865611546 14.0
72.870535402 20.0
72.875459258 10.0
72.880383114 13.0
72.885306970 14.0
72.890230826 18.0
72.895154682 14.0
72.900078538 13.0
72.905002394 13.0
72.909926250 9.0
72.914850106 11.0
72.919773962 13.0
72.924697818 19.0
72.929621674 17.0
72.934545530 20.0
72.939469386 20.0
72.944393242 17.0
72.949317098 18.0
72.954240954 8.0
72.959164810 16.0
72.964088667 12.0
72.969012523 13.0
72.973936379 15.0
72.978860235 16.0
72.983784091 9.0
72.988707947 17.0
72.993631803 18.0
72.998555659 21.0
73.003479515 5.0
73.008403371 19.0
73.013327227 16.0
73.018251083 13.0
73.023174939 6.0
73.028098795 9.0
73.033022651 9.0
73.037946507 12.0
73.042870363 12.0
73.047794219 14.0
73.052718075 12.0
73.057641931 13.0
73.062565787 10.0
73.067489643 24.0
73.072413499 13.0
73.077337355 25.0
73.082261211 9.0
73.087185067 14.0
73.092108923 13.0
73.097032779 10.0
73.101956635 18.0
73.106880491 10.0
73.111804347 10.0
73.116728203 19.0
73.121652059 15.0
73.126575915 16.0
73.131499771 16.0
73.136423627 11.0
73.141347483 16.0
73.146271339 10.0
73.151195195 15.0
73.156119051 14.0
73.161042907 12.0
73.165966763 13.0
73.170890619 13.0
73.175814475 7.0
73.180738331 16.0
73.185662187 14.0
73.190586043 11.0
73.195509899 13.0
73.200433755 10.0
73.205357611 14.0
73.210281467 18.0
73.215205323 9.0
73.220129179 20.0
73.225053035 12.0
73.229976891 16.0
73.234900747 21.0
73.239824603 14.0
73.244748459 12.0
73.249672315 15.0
73.254596171 12.0
73.259520027 12.0
73.264443883 20.0
73.269367739 15.0
73.274291595 19.0
73.279215451 15.0
73.284139307 13.0
73.289063163 11.0
73.293987019 9.0
73.298910875 15.0
73.303834731 13.0
73.308758587 10.0
73.313682443 10.0
73.318606299 17.0
73.323530155 14.0
73.328454011 12.0
73.333377868 8.0
73.338301724 12.0
73.343225580 9.0
73.348149436 13.0
73.353073292 20.0
73.357997148 9.0
73.362921004 16.0
73.367844860 12.0
73.372768716 7.0
73.377692572 16.0
73.382616428 15.0
73.387540284 11.0
73.392464140 18.0
73.397387996 9.0
73.402311852 17.0
73.407235708 13.0
73.412159564 12.0
73.417083420 12.0
73.422007276 12.0
73.426931132 16.0
73.431854988 16.0
73.436778844 18.0
73.441702700 16.0
73.446626556 14.0
73.451550412 19.0
73.456474268 11.0
73.461398124 6.0
73.466321980 17.0
73.471245836 10.0
73.476169692 13.0
73.481093548 15.0
73.486017404 21.0
73.490941260 10.0
73.495865116 9.0
73.500788972 13.0
73.505712828 8.0
73.510636684 13.0
73.515560540 14.0
73.520484396 17.0
73.525408252 19.0
73.530332108 15.0
73.535255964 12.0
73.540179820 11.0
73.545103676 19.0
73.550027532 14.0
73.554951388 11.0
73.559875244 19.0
73.564799100 14.0
73.569722956 16.0
73.574646812 12.0
73.579570668 11.0
73.584494524 14.0
73.589418380 15.0
73.594342236 13.0
73.599266092 11.0
73.604189948 14.0
73.609113804 17.0
73.614037660 12.0
73.618961516 13.0
73.623885372 16.0
73.628809228 14.0
73.633733084 14.0
73.638656940 14.0
73.643580796 18.0
73.648504652 12.0
73.653428508 15.0
73.658352364 9.0
73.663276220 8.0
73.668200076 15.0
73.673123932 11.0
73.678047788 20.0
73.682971644 10.0
73.687895500 9.0
73.692819356 11.0
73.697743212 15.0
73.702667069 8.0
73.707590925 16.0
73.712514781 17.0
73.717438637 17.0
73.722362493 14.0
73.727286349 9.0
73.732210205 14.0
73.737134061 18.0
73.742057917 14.0
73.746981773 7.0
73.751905629 8.0
73.756829485 13.0
73.761753341 9.0
73.766677197 14.0
73.771601053 16.0
73.776524909 8.0
73.781448765 14.0
73.786372621 9.0
73.791296477 18.0
73.796220333 14.0
73.801144189 11.0
73.806068045 13.0
73.810991901 10.0
73.815915757 11.0
73.820839613 16.0
73.825763469 11.0
73.830687325 20.0
73.835611181 8.0
73.840535037 14.0
73.845458893 12.0
73.850382749 14.0
73.855306605 9.0
73.860230461 10.0
73.865154317 7.0
73.870078173 11.0
73.875002029 12.0
73.879925885 9.0
73.884849741 13.0
73.889773597 10.0
73.894697453 12.0
73.899621309 11.0
73.904545165 12.0
73.909469021 14.0
73.914392877 24.0
73.919316733 14.0
73.924240589 18.0
73.929164445 11.0
73.934088301 5.0
73.939012157 13.0
73.943936013 12.0
73.948859869 17.0
73.953783725 20.0
73.958707581 11.0
73.963631437 11.0
73.968555293 11.0
73.973479149 11.0
73.978403005 15.0
73.983326861 19.0
73.988250717 13.0
73.993174573 19.0
73.998098429 17.0
74.003022285 7.0
74.007946141 14.0
74.012869997 18.0
74.017793853 15.0
74.022717709 10.0
74.027641565 13.0
74.032565421 12.0
74.037489277 19.0
74.042413133 11.0
74.047336989 16.0
74.052260845 15.0
74.057184701 13.0
74.062108557 9.0
74.067032413 16.0
74.071956270 9.0
74.076880126 15.0
74.081803982 12.0
74.086727838 10.0
74.091651694 13.0
74.096575550 16.0
74.101499406 12.0
74.106423262 10.0
74.111347118 11.0
74.116270974 10.0
74.121194830 6.0
74.126118686 12.0
74.131042542 21.0
74.135966398 12.0
74.140890254 5.0
74.145814110 12.0
74.150737966 14.0
74.155661822 13.0
74.160585678 10.0
74.165509534 12.0
74.170433390 17.0
74.175357246 11.0
74.180281102 13.0
74.185204958 17.0
74.190128814 12.0
74.195052670 10.0
74.199976526 10.0
74.204900382 11.0
74.209824238 10.0
74.214748094 10.0
74.219671950 12.0
74.224595806 8.0
74.229519662 14.0
74.234443518 12.0
74.239367374 14.0
74.244291230 9.0
74.249215086 25.0
74.254138942 11.0
74.259062798 9.0
74.263986654 18.0
74.268910510 10.0
74.273834366 15.0
74.278758222 10.0
74.283682078 11.0
74.288605934 8.0
74.293529790 9.0
74.298453646 10.0
74.303377502 18.0
74.308301358 9.0
74.313225214 15.0
74.318149070 9.0
74.323072926 7.0
74.327996782 17.0
74.332920638 11.0
74.337844494 15.0
74.342768350 9.0
74.347692206 10.0
74.352616062 11.0
74.357539918 15.0
74.362463774 13.0
74.367387630 9.0
74.372311486 7.0
74.377235342 15.0
74.382159198 14.0
74.387083054 14.0
74.392006910 19.0
74.396930766 8.0
74.401854622 12.0
74.406778478 17.0
74.411702334 16.0
74.416626190 16.0
74.421550046 10.0
74.426473902 13.0
74.431397758 8.0
74.436321614 7.0
74.441245470 11.0
74.446169327 11.0
74.451093183 10.0
74.456017039 8.0
74.460940895 13.0
74.465864751 14.0
74.470788607 13.0
74.475712463 19.0
74.480636319 12.0
74.485560175 10.0
74.490484031 13.0
74.495407887 16.0
74.500331743 9.0
74.505255599 13.0
74.510179455 9.0
74.515103311 11.0
74.520027167 6.0
74.524951023 11.0
74.529874879 16.0
74.534798735 16.0
74.539722591 14.0
74.544646447 12.0
74.549570303 8.0
74.554494159 13.0
74.559418015 14.0
74.564341871 12.0
74.569265727 13.0
74.574189583 11.0
74.579113439 16.0
74.584037295 10.0
74.588961151 17.0
74.593885007 11.0
74.598808863 14.0
74.603732719 16.0
74.608656575 11.0
74.613580431 9.0
74.618504287 17.0
74.623428143 18.0
74.628351999 9.0
74.633275855 10.0
74.638199711 11.0
74.643123567 16.0
74.648047423 14.0
74.652971279 11.0
74.657895135 10.0
74.662818991 11.0
74.667742847 6.0
74.672666703 13.0
74.677590559 17.0
74.682514415 10.0
74.687438271 11.0
74.692362127 12.0
74.697285983 12.0
74.702209839 8.0
74.707133695 11.0
74.712057551 10.0
74.716981407 10.0
74.721905263 7.0
74.726829119 16.0
74.731752975 10.0
74.736676831 16.0
74.741600687 8.0
74.746524543 10.0
74.751448399 9.0
74.756372255 4.0
74.761296111 5.0
74.766219967 12.0
74.771143823 18.0
74.776067679 9.0
74.780991535 9.0
74.785915391 18.0
74.790839247 6.0
74.795763103 8.0
74.800686959 16.0
74.805610815 7.0
74.810534671 15.0
74.815458528 12.0
74.820382384 4.0
74.825306240 11.0
74.830230096 18.0
74.835153952 21.0
74.840077808 12.0
74.845001664 15.0
74.849925520 10.0
74.854849376 8.0
74.859773232 6.0
74.864697088 14.0
74.869620944 11.0
74.874544800 11.0
74.879468656 8.0
74.884392512 10.0
74.889316368 15.0
74.894240224 9.0
74.899164080 12.0
74.904087936 14.0
74.909011792 15.0
74.913935648 13.0
74.918859504 14.0
74.923783360 11.0
74.928707216 15.0
74.933631072 9.0
74.938554928 10.0
74.943478784 10.0
74.948402640 8.0
74.953326496 15.0
74.958250352 13.0
74.963174208 12.0
74.968098064 8.0
74.973021920 12.0
74.977945776 13.0
74.982869632 15.0
74.987793488 6.0
74.992717344 8.0
74.997641200 9.0
