55.001861930 11.0
55.006785786 10.0
55.011709642 9.0
55.016633498 8.0
55.021557354 5.0
55.026481210 12.0
55.031405066 6.0
55.036328922 15.0
55.041252778 11.0
55.046176634 10.0
55.051100490 12.0
55.056024346 9.0
55.060948202 4.0
55.065872058 14.0
55.070795914 11.0
55.075719770 14.0
55.080643626 13.0
55.085567482 5.0
55.090491338 7.0
55.095415194 8.0
55.100339050 11.0
55.105262906 8.0
55.110186762 13.0
55.115110618 7.0
55.120034474 9.0
55.124958330 10.0
55.129882186 15.0
55.134806042 12.0
55.139729898 9.0
55.144653754 11.0
55.149577610 11.0
55.154501466 10.0
55.159425322 14.0
55.164349178 10.0
55.169273034 13.0
55.174196890 9.0
55.179120746 10.0
55.184044602 15.0
55.188968459 10.0
55.193892315 15.0
55.198816171 10.0
55.203740027 10.0
55.208663883 13.0
55.213587739 8.0
55.218511595 16.0
55.223435451 12.0
55.228359307 15.0
55.233283163 10.0
55.238207019 7.0
55.243130875 11.0
55.248054731 19.0
55.252978587 8.0
55.257902443 13.0
55.262826299 14.0
55.267750155 15.0
55.272674011 9.0
55.277597867 9.0
55.282521723 15.0
55.287445579 10.0
55.292369435 11.0
55.297293291 10.0
55.302217147 9.0
55.307141003 10.0
55.312064859 15.0
55.316988715 8.0
55.321912571 6.0
55.326836427 12.0
55.331760283 8.0
55.336684139 11.0
55.341607995 12.0
55.346531851 14.0
55.351455707 18.0
55.356379563 10.0
55.361303419 5.0
55.366227275 11.0
55.371151131 17.0
55.376074987 13.0
55.380998843 9.0
55.385922699 11.0
55.390846555 20.0
55.395770411 13.0
55.400694267 13.0
55.405618123 14.0
55.410541979 15.0
55.415465835 9.0
55.420389691 13.0
55.425313547 9.0
55.430237403 14.0
55.435161259 17.0
55.440085115 19.0
55.445008971 8.0
55.449932827 5.0
55.454856683 16.0
55.459780539 10.0
55.464704395 15.0
55.469628251 11.0
55.474552107 15.0
55.479475963 12.0
55.484399819 11.0
55.489323675 10.0
55.494247531 11.0
55.499171387 15.0
55.504095243 8.0
55.509019099 14.0
55.513942955 14.0
55.518866811 9.0
55.523790667 8.0
55.528714523 11.0
55.533638379 16.0
55.538562235 10.0
55.543486091 9.0
55.548409947 14.0
55.553333803 15.0
55.558257660 11.0
55.563181516 12.0
55.568105372 20.0
55.573029228 17.0
55.577953084 11.0
55.582876940 11.0
55.587800796 10.0
55.592724652 11.0
55.597648508 12.0
55.602572364 10.0
55.607496220 9.0
55.612420076 8.0
55.617343932 12.0
55.622267788 8.0
55.627191644 18.0
55.632115500 14.0
55.637039356 11.0
55.641963212 13.0
55.646887068 11.0
55.651810924 7.0
55.656734780 13.0
55.661658636 5.0
55.666582492 13.0
55.671506348 10.0
55.676430204 10.0
55.681354060 9.0
55.686277916 15.0
55.691201772 10.0
55.696125628 8.0
55.701049484 8.0
55.705973340 12.0
55.710897196 7.0
55.715821052 4.0
55.720744908 14.0
55.725668764 14.0
55.730592620 12.0
55.735516476 19.0
55.740440332 8.0
55.745364188 17.0
55.750288044 10.0
55.755211900 8.0
55.760135756 11.0
55.765059612 12.0
55.769983468 13.0
55.774907324 18.0
55.779831180 9.0
55.784755036 15.0
55.789678892 12.0
55.794602748 20.0
55.799526604 16.0
55.804450460 9.0
55.809374316 13.0
55.814298172 5.0
55.819222028 11.0
55.824145884 11.0
55.829069740 14.0
55.833993596 8.0
55.838917452 11.0
55.843841308 8.0
55.848765164 9.0
55.853689020 9.0
55.858612876 10.0
55.863536732 3.0
55.868460588 9.0
55.873384444 6.0
55.878308300 9.0
55.883232156 9.0
55.888156012 6.0
55.893079868 14.0
55.898003724 9.0
55.902927580 13.0
55.907851436 9.0
55.912775292 9.0
55.917699148 10.0
55.922623004 13.0
55.927546860 8.0
55.932470717 6.0
55.937394573 10.0
55.942318429 8.0
55.947242285 12.0
55.952166141 9.0
55.957089997 14.0
55.962013853 11.0
55.966937709 12.0
55.971861565 19.0
55.976785421 12.0
55.981709277 13.0
55.986633133 10.0
55.991556989 9.0
55.996480845 11.0
56.001404701 10.0
56.006328557 13.0
56.011252413 11.0
56.016176269 9.0
56.021100125 8.0
56.026023981 7.0
56.030947837 12.0
56.035871693 11.0
56.040795549 7.0
56.045719405 11.0
56.050643261 10.0
56.055567117 17.0
56.060490973 19.0
56.065414829 22.0
56.070338685 12.0
56.075262541 12.0
56.080186397 10.0
56.085110253 20.0
56.090034109 9.0
56.094957965 18.0
56.099881821 8.0
56.104805677 15.0
56.109729533 17.0
56.114653389 11.0
56.119577245 17.0
56.124501101 15.0
56.129424957 9.0
56.134348813 11.0
56.139272669 12.0
56.144196525 7.0
56.149120381 12.0
56.154044237 13.0
56.158968093 15.0
56.163891949 14.0
56.168815805 8.0
56.173739661 13.0
56.178663517 14.0
56.183587373 16.0
56.188511229 10.0
56.193435085 13.0
56.198358941 12.0
56.203282797 16.0
56.208206653 15.0
56.213130509 12.0
56.218054365 17.0
56.222978221 12.0
56.227902077 14.0
56.232825933 14.0
56.237749789 11.0
56.242673645 17.0
56.247597501 3.0
56.252521357 15.0
56.257445213 12.0
56.262369069 14.0
56.267292925 6.0
56.272216781 15.0
56.277140637 11.0
56.282064493 10.0
56.286988349 18.0
56.291912205 8.0
56.296836061 13.0
56.301759918 13.0
56.306683774 6.0
56.311607630 17.0
56.316531486 12.0
56.321455342 9.0
56.326379198 9.0
56.331303054 9.0
56.336226910 11.0
56.341150766 12.0
56.346074622 10.0
56.350998478 10.0
56.355922334 10.0
56.360846190 15.0
56.365770046 14.0
56.370693902 10.0
56.375617758 7.0
56.380541614 12.0
56.385465470 17.0
56.390389326 6.0
56.395313182 10.0
56.400237038 18.0
56.405160894 10.0
56.410084750 18.0
56.415008606 10.0
56.419932462 17.0
56.424856318 12.0
56.429780174 10.0
56.434704030 14.0
56.439627886 19.0
56.444551742 12.0
56.449475598 10.0
56.454399454 12.0
56.459323310 19.0
56.464247166 20.0
56.469171022 10.0
56.474094878 11.0
56.479018734 9.0
56.483942590 10.0
56.488866446 16.0
56.493790302 9.0
56.498714158 13.0
56.503638014 9.0
56.508561870 9.0
56.513485726 9.0
56.518409582 14.0
56.523333438 9.0
56.528257294 13.0
56.533181150 10.0
56.538105006 10.0
56.543028862 11.0
56.547952718 18.0
56.552876574 13.0
56.557800430 14.0
56.562724286 11.0
56.567648142 6.0
56.572571998 10.0
56.577495854 18.0
56.582419710 11.0
56.587343566 13.0
56.592267422 10.0
56.597191278 8.0
56.602115134 2.0
56.607038990 11.0
56.611962846 11.0
56.616886702 12.0
56.621810558 8.0
56.626734414 15.0
56.631658270 8.0
56.636582126 12.0
56.641505982 10.0
56.646429838 13.0
56.651353694 13.0
56.656277550 12.0
56.661201406 9.0
56.666125262 8.0
56.671049119 13.0
56.675972975 13.0
56.680896831 15.0
56.685820687 17.0
56.690744543 8.0
56.695668399 4.0
56.700592255 10.0
56.705516111 10.0
56.710439967 12.0
56.715363823 15.0
56.720287679 11.0
56.725211535 10.0
56.730135391 11.0
56.735059247 13.0
56.739983103 16.0
56.744906959 16.0
56.749830815 12.0
56.754754671 10.0
56.759678527 9.0
56.764602383 9.0
56.769526239 9.0
56.774450095 14.0
56.779373951 5.0
56.784297807 14.0
56.789221663 15.0
56.794145519 18.0
56.799069375 6.0
56.803993231 12.0
56.808917087 19.0
56.813840943 12.0
56.818764799 16.0
56.823688655 11.0
56.828612511 20.0
56.833536367 15.0
56.838460223 13.0
56.843384079 13.0
56.848307935 11.0
56.853231791 19.0
56.858155647 13.0
56.863079503 9.0
56.868003359 12.0
56.872927215 12.0
56.877851071 14.0
56.882774927 13.0
56.887698783 6.0
56.892622639 15.0
56.897546495 1.0
56.902470351 13.0
56.907394207 10.0
56.912318063 10.0
56.917241919 11.0
56.922165775 12.0
56.927089631 12.0
56.932013487 5.0
56.936937343 10.0
56.941861199 13.0
56.946785055 7.0
56.951708911 7.0
56.956632767 15.0
56.961556623 13.0
56.966480479 12.0
56.971404335 12.0
56.976328191 17.0
56.981252047 13.0
56.986175903 16.0
56.991099759 6.0
56.996023615 5.0
57.000947471 12.0
57.005871327 7.0
57.010795183 7.0
57.015719039 8.0
57.020642895 17.0
57.025566751 13.0
57.030490607 12.0
57.035414463 8.0
57.040338320 9.0
57.045262176 11.0
57.050186032 10.0
57.055109888 15.0
57.060033744 18.0
57.064957600 11.0
57.069881456 9.0
57.074805312 13.0
57.079729168 11.0
57.084653024 12.0
57.089576880 5.0
57.094500736 4.0
57.099424592 13.0
57.104348448 7.0
57.109272304 6.0
57.114196160 16.0
57.119120016 14.0
57.124043872 6.0
57.128967728 7.0
57.133891584 10.0
57.138815440 5.0
57.143739296 13.0
57.148663152 11.0
57.153587008 12.0
57.158510864 14.0
57.163434720 12.0
57.168358576 9.0
57.173282432 8.0
57.178206288 8.0
57.183130144 11.0
57.188054000 9.0
57.192977856 13.0
57.197901712 5.0
57.202825568 10.0
57.207749424 15.0
57.212673280 13.0
57.217597136 15.0
57.222520992 8.0
57.227444848 12.0
57.232368704 10.0
57.237292560 13.0
57.242216416 10.0
57.247140272 10.0
57.252064128 9.0
57.256987984 14.0
57.261911840 10.0
57.266835696 16.0
57.271759552 11.0
57.276683408 5.0
57.281607264 10.0
57.286531120 15.0
57.291454976 11.0
57.296378832 15.0
57.301302688 12.0
57.306226544 5.0
57.311150400 11.0
57.316074256 14.0
57.320998112 20.0
57.325921968 13.0
57.330845824 14.0
57.335769680 10.0
57.340693536 8.0
57.345617392 15.0
57.350541248 15.0
57.355465104 7.0
57.360388960 17.0
57.365312816 10.0
57.370236672 21.0
57.375160528 9.0
57.380084384 14.0
57.385008240 13.0
57.389932096 13.0
57.394855952 10.0
57.399779808 18.0
57.404703664 21.0
57.409627521 18.0
57.414551377 12.0
57.419475233 14.0
57.424399089 10.0
57.429322945 10.0
57.434246801 9.0
57.439170657 11.0
57.444094513 11.0
57.449018369 11.0
57.453942225 14.0
57.458866081 15.0
57.463789937 13.0
57.468713793 17.0
57.473637649 19.0
57.478561505 11.0
57.483485361 13.0
57.488409217 8.0
57.493333073 14.0
57.498256929 13.0
57.503180785 17.0
57.508104641 11.0
57.513028497 15.0
57.517952353 11.0
57.522876209 14.0
57.527800065 22.0
57.532723921 11.0
57.537647777 10.0
57.542571633 16.0
57.547495489 20.0
57.552419345 7.0
57.557343201 9.0
57.562267057 15.0
57.567190913 11.0
57.572114769 13.0
57.577038625 7.0
57.581962481 11.0
57.586886337 14.0
57.591810193 21.0
57.596734049 12.0
57.601657905 17.0
57.606581761 12.0
57.611505617 16.0
57.616429473 9.0
57.621353329 17.0
57.626277185 15.0
57.631201041 20.0
57.636124897 6.0
57.641048753 14.0
57.645972609 5.0
57.650896465 10.0
57.655820321 15.0
57.660744177 24.0
57.665668033 13.0
57.670591889 14.0
57.675515745 10.0
57.680439601 22.0
57.685363457 20.0
57.690287313 19.0
57.695211169 21.0
57.700135025 26.0
57.705058881 20.0
57.709982737 14.0
57.714906593 20.0
57.719830449 16.0
57.724754305 14.0
57.729678161 17.0
57.734602017 20.0
57.739525873 24.0
57.744449729 12.0
57.749373585 21.0
57.754297441 21.0
57.759221297 17.0
57.764145153 23.0
57.769069009 22.0
57.773992865 19.0
57.778916721 16.0
57.783840578 24.0
57.788764434 23.0
57.793688290 18.0
57.798612146 24.0
57.803536002 23.0
57.808459858 28.0
57.813383714 20.0
57.818307570 29.0
57.823231426 27.0
57.828155282 25.0
57.833079138 32.0
57.838002994 28.0
57.842926850 16.0
57.847850706 27.0
57.852774562 21.0
57.857698418 27.0
57.862622274 20.0
57.867546130 18.0
57.872469986 16.0
57.877393842 20.0
57.882317698 20.0
57.887241554 21.0
57.892165410 24.0
57.897089266 31.0
57.902013122 18.0
57.906936978 28.0
57.911860834 20.0
57.916784690 17.0
57.921708546 24.0
57.926632402 15.0
57.931556258 20.0
57.936480114 23.0
57.941403970 19.0
57.946327826 24.0
57.951251682 16.0
57.956175538 25.0
57.961099394 17.0
57.966023250 18.0
57.970947106 22.0
57.975870962 21.0
57.980794818 17.0
57.985718674 14.0
57.990642530 14.0
57.995566386 18.0
58.000490242 10.0
58.005414098 14.0
58.010337954 11.0
58.015261810 17.0
58.020185666 20.0
58.025109522 9.0
58.030033378 14.0
58.034957234 26.0
58.039881090 15.0
58.044804946 11.0
58.049728802 13.0
58.054652658 14.0
58.059576514 17.0
58.064500370 17.0
58.069424226 16.0
58.074348082 9.0
58.079271938 13.0
58.084195794 21.0
58.089119650 6.0
58.094043506 16.0
58.098967362 9.0
58.103891218 12.0
58.108815074 14.0
58.113738930 13.0
58.118662786 15.0
58.123586642 11.0
58.128510498 13.0
58.133434354 14.0
58.138358210 13.0
58.143282066 11.0
58.148205922 15.0
58.153129779 17.0
58.158053635 16.0
58.162977491 14.0
58.167901347 24.0
58.172825203 15.0
58.177749059 12.0
58.182672915 17.0
58.187596771 6.0
58.192520627 10.0
58.197444483 20.0
58.202368339 15.0
58.207292195 20.0
58.212216051 13.0
58.217139907 15.0
58.222063763 20.0
58.226987619 15.0
58.231911475 8.0
58.236835331 12.0
58.241759187 15.0
58.246683043 8.0
58.251606899 11.0
58.256530755 7.0
58.261454611 8.0
58.266378467 13.0
58.271302323 12.0
58.276226179 13.0
58.281150035 14.0
58.286073891 17.0
58.290997747 24.0
58.295921603 12.0
58.300845459 7.0
58.305769315 13.0
58.310693171 15.0
58.315617027 8.0
58.320540883 10.0
58.325464739 9.0
58.330388595 12.0
58.335312451 14.0
58.340236307 14.0
58.345160163 12.0
58.350084019 16.0
58.355007875 10.0
58.359931731 12.0
58.364855587 12.0
58.369779443 10.0
58.374703299 11.0
58.379627155 8.0
58.384551011 10.0
58.389474867 12.0
58.394398723 14.0
58.399322579 16.0
58.404246435 8.0
58.409170291 20.0
58.414094147 16.0
58.419018003 11.0
58.423941859 11.0
58.428865715 13.0
58.433789571 10.0
58.438713427 12.0
58.443637283 13.0
58.448561139 12.0
58.453484995 10.0
58.458408851 13.0
58.463332707 9.0
58.468256563 12.0
58.473180419 19.0
58.478104275 11.0
58.483028131 12.0
58.487951987 13.0
58.492875843 6.0
58.497799699 6.0
58.502723555 21.0
58.507647411 16.0
58.512571267 11.0
58.517495123 12.0
58.522418980 14.0
58.527342836 11.0
58.532266692 3.0
58.537190548 17.0
58.542114404 13.0
58.547038260 10.0
58.551962116 13.0
58.556885972 7.0
58.561809828 8.0
58.566733684 20.0
58.571657540 13.0
58.576581396 6.0
58.581505252 17.0
58.586429108 12.0
58.591352964 12.0
58.596276820 10.0
58.601200676 13.0
58.606124532 17.0
58.611048388 10.0
58.615972244 8.0
58.620896100 12.0
58.625819956 7.0
58.630743812 19.0
58.635667668 18.0
58.640591524 17.0
58.645515380 4.0
58.650439236 14.0
58.655363092 11.0
58.660286948 9.0
58.665210804 9.0
58.670134660 17.0
58.675058516 10.0
58.679982372 12.0
58.684906228 9.0
58.689830084 15.0
58.694753940 17.0
58.699677796 10.0
58.704601652 9.0
58.709525508 10.0
58.714449364 10.0
58.719373220 14.0
58.724297076 9.0
58.729220932 15.0
58.734144788 21.0
58.739068644 8.0
58.743992500 15.0
58.748916356 18.0
58.753840212 11.0
58.758764068 14.0
58.763687924 13.0
58.768611780 13.0
58.773535636 11.0
58.778459492 14.0
58.783383348 20.0
58.788307204 10.0
58.793231060 11.0
58.798154916 8.0
58.803078772 5.0
58.808002628 13.0
58.812926484 8.0
58.817850340 13.0
58.822774196 8.0
58.827698052 12.0
58.832621908 12.0
58.837545764 15.0
58.842469620 12.0
58.847393476 19.0
58.852317332 12.0
58.857241188 16.0
58.862165044 11.0
58.867088900 15.0
58.872012756 16.0
58.876936612 10.0
58.881860468 8.0
58.886784324 16.0
58.891708181 8.0
58.896632037 19.0
58.901555893 10.0
58.906479749 11.0
58.911403605 14.0
58.916327461 12.0
58.921251317 18.0
58.926175173 9.0
58.931099029 9.0
58.936022885 10.0
58.940946741 13.0
58.945870597 8.0
58.950794453 11.0
58.955718309 15.0
58.960642165 16.0
58.965566021 11.0
58.970489877 12.0
58.975413733 9.0
58.980337589 11.0
58.985261445 15.0
58.990185301 15.0
58.995109157 6.0
59.000033013 15.0
59.004956869 10.0
59.009880725 13.0
59.014804581 15.0
59.019728437 12.0
59.024652293 6.0
59.029576149 20.0
59.034500005 10.0
59.039423861 11.0
59.044347717 16.0
59.049271573 13.0
59.054195429 14.0
59.059119285 10.0
59.064043141 13.0
59.068966997 12.0
59.073890853 9.0
59.078814709 16.0
59.083738565 15.0
59.088662421 11.0
59.093586277 11.0
59.098510133 9.0
59.103433989 8.0
59.108357845 20.0
59.113281701 9.0
59.118205557 8.0
59.123129413 13.0
59.128053269 10.0
59.132977125 6.0
59.137900981 6.0
59.142824837 11.0
59.147748693 14.0
59.152672549 11.0
59.157596405 8.0
59.162520261 12.0
59.167444117 20.0
59.172367973 14.0
59.177291829 11.0
59.182215685 14.0
59.187139541 16.0
59.192063397 7.0
59.196987253 6.0
59.201911109 7.0
59.206834965 4.0
59.211758821 10.0
59.216682677 13.0
59.221606533 13.0
59.226530389 15.0
59.231454245 13.0
59.236378101 10.0
59.241301957 16.0
59.246225813 9.0
59.251149669 10.0
59.256073525 10.0
59.260997382 17.0
59.265921238 11.0
59.270845094 12.0
59.275768950 14.0
59.280692806 9.0
59.285616662 9.0
59.290540518 12.0
59.295464374 14.0
59.300388230 15.0
59.305312086 13.0
59.310235942 12.0
59.315159798 20.0
59.320083654 18.0
59.325007510 6.0
59.329931366 13.0
59.334855222 8.0
59.339779078 13.0
59.344702934 8.0
59.349626790 14.0
59.354550646 13.0
59.359474502 21.0
59.364398358 10.0
59.369322214 11.0
59.374246070 14.0
59.379169926 9.0
59.384093782 12.0
59.389017638 17.0
59.393941494 15.0
59.398865350 13.0
59.403789206 10.0
59.408713062 9.0
59.413636918 9.0
59.418560774 12.0
59.423484630 9.0
59.428408486 12.0
59.433332342 15.0
59.438256198 15.0
59.443180054 14.0
59.448103910 16.0
59.453027766 11.0
59.457951622 9.0
59.462875478 11.0
59.467799334 16.0
59.472723190 15.0
59.477647046 13.0
59.482570902 9.0
59.487494758 22.0
59.492418614 14.0
59.497342470 13.0
59.502266326 16.0
59.507190182 14.0
59.512114038 9.0
59.517037894 12.0
59.521961750 13.0
59.526885606 9.0
59.531809462 13.0
59.536733318 12.0
59.541657174 11.0
59.546581030 11.0
59.551504886 10.0
59.556428742 17.0
59.561352598 8.0
59.566276454 10.0
59.571200310 9.0
59.576124166 15.0
59.581048022 8.0
59.585971878 11.0
59.590895734 21.0
59.595819590 12.0
59.600743446 16.0
59.605667302 10.0
59.610591158 10.0
59.615515014 14.0
59.620438870 12.0
59.625362726 11.0
59.630286582 11.0
59.635210439 11.0
59.640134295 12.0
59.645058151 19.0
59.649982007 15.0
59.654905863 12.0
59.659829719 11.0
59.664753575 10.0
59.669677431 8.0
59.674601287 14.0
59.679525143 19.0
59.684448999 13.0
59.689372855 15.0
59.694296711 16.0
59.699220567 9.0
59.704144423 15.0
59.709068279 8.0
59.713992135 12.0
59.718915991 14.0
59.723839847 13.0
59.728763703 11.0
59.733687559 14.0
59.738611415 12.0
59.743535271 14.0
59.748459127 23.0
59.753382983 12.0
59.758306839 7.0
59.763230695 9.0
59.768154551 11.0
59.773078407 13.0
59.778002263 12.0
59.782926119 14.0
59.787849975 17.0
59.792773831 17.0
59.797697687 8.0
59.802621543 13.0
59.807545399 10.0
59.812469255 9.0
59.817393111 10.0
59.822316967 16.0
59.827240823 10.0
59.832164679 6.0
59.837088535 7.0
59.842012391 14.0
59.846936247 19.0
59.851860103 12.0
59.856783959 15.0
59.861707815 19.0
59.866631671 13.0
59.871555527 9.0
59.876479383 10.0
59.881403239 19.0
59.886327095 6.0
59.891250951 9.0
59.896174807 15.0
59.901098663 9.0
59.906022519 14.0
59.910946375 12.0
59.915870231 9.0
59.920794087 14.0
59.925717943 10.0
59.930641799 15.0
59.935565655 14.0
59.940489511 19.0
59.945413367 8.0
59.950337223 8.0
59.955261079 9.0
59.960184935 8.0
59.965108791 16.0
59.970032647 17.0
59.974956503 16.0
59.979880359 13.0
59.984804215 13.0
59.989728071 10.0
59.994651927 15.0
59.999575783 17.0
60.004499640 15.0
60.009423496 12.0
60.014347352 16.0
60.019271208 11.0
60.024195064 15.0
60.029118920 4.0
60.034042776 12.0
60.038966632 7.0
60.043890488 9.0
60.048814344 13.0
60.053738200 14.0
60.058662056 22.0
60.063585912 10.0
60.068509768 7.0
60.073433624 13.0
60.078357480 11.0
60.083281336 18.0
60.088205192 14.0
60.093129048 13.0
60.098052904 12.0
60.102976760 14.0
60.107900616 12.0
60.112824472 6.0
60.117748328 11.0
60.122672184 6.0
60.127596040 9.0
60.132519896 16.0
60.137443752 13.0
60.142367608 15.0
60.147291464 13.0
60.152215320 17.0
60.157139176 9.0
60.162063032 10.0
60.166986888 14.0
60.171910744 16.0
60.176834600 12.0
60.181758456 16.0
60.186682312 13.0
60.191606168 15.0
60.196530024 18.0
60.201453880 18.0
60.206377736 15.0
60.211301592 11.0
60.216225448 13.0
60.221149304 25.0
60.226073160 19.0
60.230997016 23.0
60.235920872 21.0
60.240844728 15.0
60.245768584 15.0
60.250692440 21.0
60.255616296 26.0
60.260540152 20.0
60.265464008 16.0
60.270387864 17.0
60.275311720 13.0
60.280235576 16.0
60.285159432 23.0
60.290083288 12.0
60.295007144 12.0
60.299931000 18.0
60.304854856 16.0
60.309778712 16.0
60.314702568 19.0
60.319626424 13.0
60.324550280 15.0
60.329474136 25.0
60.334397992 19.0
60.339321848 23.0
60.344245704 11.0
60.349169560 15.0
60.354093416 25.0
60.359017272 14.0
60.363941128 18.0
60.368864984 19.0
60.373788841 14.0
60.378712697 20.0
60.383636553 16.0
60.388560409 12.0
60.393484265 12.0
60.398408121 16.0
60.403331977 14.0
60.408255833 21.0
60.413179689 16.0
60.418103545 14.0
60.423027401 17.0
60.427951257 15.0
60.432875113 12.0
60.437798969 14.0
60.442722825 23.0
60.447646681 15.0
60.452570537 13.0
60.457494393 11.0
60.462418249 19.0
60.467342105 16.0
60.472265961 10.0
60.477189817 14.0
60.482113673 17.0
60.487037529 18.0
60.491961385 18.0
60.496885241 15.0
60.501809097 15.0
60.506732953 18.0
60.511656809 20.0
60.516580665 23.0
60.521504521 17.0
60.526428377 24.0
60.531352233 11.0
60.536276089 17.0
60.541199945 18.0
60.546123801 16.0
60.551047657 18.0
60.555971513 22.0
60.560895369 24.0
60.565819225 21.0
60.570743081 14.0
60.575666937 23.0
60.580590793 14.0
60.585514649 23.0
60.590438505 25.0
60.595362361 23.0
60.600286217 20.0
60.605210073 27.0
60.610133929 22.0
60.615057785 31.0
60.619981641 25.0
60.624905497 24.0
60.629829353 21.0
60.634753209 26.0
60.639677065 24.0
60.644600921 21.0
60.649524777 25.0
60.654448633 36.0
60.659372489 22.0
60.664296345 24.0
60.669220201 32.0
60.674144057 41.0
60.679067913 38.0
60.683991769 36.0
60.688915625 35.0
60.693839481 46.0
60.698763337 42.0
60.703687193 63.0
60.708611049 67.0
60.713534905 53.0
60.718458761 71.0
60.723382617 86.0
60.728306473 102.0
60.733230329 112.0
60.738154185 131.0
60.743078042 169.0
60.748001898 183.0
60.752925754 274.0
60.757849610 339.0
60.762773466 400.0
60.767697322 468.0
60.772621178 550.0
60.777545034 550.0
60.782468890 594.0
60.787392746 678.0
60.792316602 611.0
60.797240458 613.0
60.802164314 628.0
60.807088170 546.0
60.812012026 482.0
60.816935882 463.0
60.821859738 396.0
60.826783594 366.0
60.831707450 370.0
60.836631306 318.0
60.841555162 226.0
60.846479018 223.0
60.851402874 214.0
60.856326730 202.0
60.861250586 214.0
60.866174442 203.0
60.871098298 190.0
60.876022154 189.0
60.880946010 178.0
60.885869866 134.0
60.890793722 162.0
60.895717578 154.0
60.900641434 129.0
60.905565290 127.0
60.910489146 100.0
60.915413002 91.0
60.920336858 83.0
60.925260714 82.0
60.930184570 61.0
60.935108426 60.0
60.940032282 55.0
60.944956138 67.0
60.949879994 54.0
60.954803850 47.0
60.959727706 50.0
60.964651562 52.0
60.969575418 48.0
60.974499274 38.0
60.979423130 32.0
60.984346986 32.0
60.989270842 32.0
60.994194698 27.0
60.999118554 40.0
61.004042410 40.0
61.008966266 35.0
61.013890122 38.0
61.018813978 32.0
61.023737834 25.0
61.028661690 43.0
61.033585546 23.0
61.038509402 25.0
61.043433258 29.0
61.048357114 26.0
61.053280970 37.0
61.058204826 24.0
61.063128682 29.0
61.068052538 31.0
61.072976394 21.0
61.077900250 23.0
61.082824106 31.0
61.087747962 26.0
61.092671818 27.0
61.097595674 27.0
61.102519530 26.0
61.107443386 33.0
61.112367243 10.0
61.117291099 25.0
61.122214955 19.0
61.127138811 22.0
61.132062667 26.0
61.136986523 24.0
61.141910379 22.0
61.146834235 19.0
61.151758091 27.0
61.156681947 26.0
61.161605803 21.0
61.166529659 28.0
61.171453515 22.0
61.176377371 30.0
61.181301227 26.0
61.186225083 26.0
61.191148939 22.0
61.196072795 22.0
61.200996651 31.0
61.205920507 17.0
61.210844363 30.0
61.215768219 22.0
61.220692075 14.0
61.225615931 26.0
61.230539787 24.0
61.235463643 27.0
61.240387499 19.0
61.245311355 20.0
61.250235211 30.0
61.255159067 21.0
61.260082923 16.0
61.265006779 13.0
61.269930635 21.0
61.274854491 24.0
61.279778347 21.0
61.284702203 19.0
61.289626059 25.0
61.294549915 16.0
61.299473771 25.0
61.304397627 22.0
61.309321483 29.0
61.314245339 25.0
61.319169195 27.0
61.324093051 21.0
61.329016907 19.0
61.333940763 19.0
61.338864619 16.0
61.343788475 15.0
61.348712331 18.0
61.353636187 15.0
61.358560043 18.0
61.363483899 23.0
61.368407755 23.0
61.373331611 20.0
61.378255467 24.0
61.383179323 13.0
61.388103179 24.0
61.393027035 26.0
61.397950891 12.0
61.402874747 21.0
61.407798603 21.0
61.412722459 21.0
61.417646315 12.0
61.422570171 18.0
61.427494027 18.0
61.432417883 18.0
61.437341739 16.0
61.442265595 12.0
61.447189451 18.0
61.452113307 26.0
61.457037163 18.0
61.461961019 20.0
61.466884875 11.0
61.471808731 17.0
61.476732587 18.0
61.481656443 19.0
61.486580300 16.0
61.491504156 13.0
61.496428012 17.0
61.501351868 19.0
61.506275724 20.0
61.511199580 12.0
61.516123436 19.0
61.521047292 22.0
61.525971148 17.0
61.530895004 25.0
61.535818860 14.0
61.540742716 25.0
61.545666572 15.0
61.550590428 16.0
61.555514284 26.0
61.560438140 20.0
61.565361996 21.0
61.570285852 27.0
61.575209708 24.0
61.580133564 21.0
61.585057420 20.0
61.589981276 18.0
61.594905132 29.0
61.599828988 15.0
61.604752844 22.0
61.609676700 18.0
61.614600556 21.0
61.619524412 17.0
61.624448268 25.0
61.629372124 13.0
61.634295980 22.0
61.639219836 21.0
61.644143692 18.0
61.649067548 22.0
61.653991404 22.0
61.658915260 19.0
61.663839116 12.0
61.668762972 21.0
61.673686828 22.0
61.678610684 18.0
61.683534540 24.0
61.688458396 13.0
61.693382252 21.0
61.698306108 19.0
61.703229964 15.0
61.708153820 29.0
61.713077676 17.0
61.718001532 23.0
61.722925388 23.0
61.727849244 23.0
61.732773100 16.0
61.737696956 20.0
61.742620812 18.0
61.747544668 15.0
61.752468524 22.0
61.757392380 15.0
61.762316236 23.0
61.767240092 27.0
61.772163948 23.0
61.777087804 21.0
61.782011660 13.0
61.786935516 18.0
61.791859372 18.0
61.796783228 22.0
61.801707084 22.0
61.806630940 12.0
61.811554796 22.0
61.816478652 18.0
61.821402508 27.0
61.826326364 14.0
61.831250220 14.0
61.836174076 22.0
61.841097932 14.0
61.846021788 22.0
61.850945644 17.0
61.855869501 18.0
61.860793357 15.0
61.865717213 18.0
61.870641069 18.0
61.875564925 20.0
61.880488781 15.0
61.885412637 24.0
61.890336493 19.0
61.895260349 29.0
61.900184205 21.0
61.905108061 19.0
61.910031917 16.0
61.914955773 20.0
61.919879629 20.0
61.924803485 15.0
61.929727341 17.0
61.934651197 17.0
61.939575053 15.0
61.944498909 20.0
61.949422765 21.0
61.954346621 25.0
61.959270477 21.0
61.964194333 15.0
61.969118189 14.0
61.974042045 24.0
61.978965901 16.0
61.983889757 8.0
61.988813613 21.0
61.993737469 14.0
61.998661325 13.0
62.003585181 22.0
62.008509037 14.0
62.013432893 16.0
62.018356749 17.0
62.023280605 26.0
62.028204461 20.0
62.033128317 19.0
62.038052173 28.0
62.042976029 18.0
62.047899885 16.0
62.052823741 23.0
62.057747597 17.0
62.062671453 16.0
62.067595309 17.0
62.072519165 23.0
62.077443021 19.0
62.082366877 14.0
62.087290733 27.0
62.092214589 13.0
62.097138445 23.0
62.102062301 17.0
62.106986157 21.0
62.111910013 17.0
62.116833869 17.0
62.121757725 21.0
62.126681581 15.0
62.131605437 19.0
62.136529293 20.0
62.141453149 18.0
62.146377005 16.0
62.151300861 19.0
62.156224717 24.0
62.161148573 17.0
62.166072429 19.0
62.170996285 26.0
62.175920141 16.0
62.180843997 18.0
62.185767853 27.0
62.190691709 16.0
62.195615565 25.0
62.200539421 22.0
62.205463277 18.0
62.210387133 17.0
62.215310989 15.0
62.220234845 18.0
62.225158702 21.0
62.230082558 21.0
62.235006414 18.0
62.239930270 18.0
62.244854126 17.0
62.249777982 21.0
62.254701838 30.0
62.259625694 21.0
62.264549550 17.0
62.269473406 13.0
62.274397262 19.0
62.279321118 27.0
62.284244974 18.0
62.289168830 25.0
62.294092686 27.0
62.299016542 20.0
62.303940398 19.0
62.308864254 16.0
62.313788110 17.0
62.318711966 13.0
62.323635822 19.0
62.328559678 22.0
62.333483534 17.0
62.338407390 17.0
62.343331246 25.0
62.348255102 22.0
62.353178958 16.0
62.358102814 20.0
62.363026670 20.0
62.367950526 20.0
62.372874382 24.0
62.377798238 24.0
62.382722094 29.0
62.387645950 16.0
62.392569806 19.0
62.397493662 29.0
62.402417518 28.0
62.407341374 13.0
62.412265230 18.0
62.417189086 15.0
62.422112942 20.0
62.427036798 20.0
62.431960654 21.0
62.436884510 21.0
62.441808366 25.0
62.446732222 22.0
62.451656078 18.0
62.456579934 24.0
62.461503790 18.0
62.466427646 21.0
62.471351502 18.0
62.476275358 16.0
62.481199214 24.0
62.486123070 18.0
62.491046926 32.0
62.495970782 30.0
62.500894638 32.0
62.505818494 17.0
62.510742350 27.0
62.515666206 26.0
62.520590062 26.0
62.525513918 22.0
62.530437774 19.0
62.535361630 17.0
62.540285486 14.0
62.545209342 21.0
62.550133198 23.0
62.555057054 25.0
62.559980910 12.0
62.564904766 23.0
62.569828622 23.0
62.574752478 13.0
62.579676334 23.0
62.584600190 24.0
62.589524046 16.0
62.594447903 24.0
62.599371759 21.0
62.604295615 19.0
62.609219471 21.0
62.614143327 21.0
62.619067183 20.0
62.623991039 17.0
62.628914895 26.0
62.633838751 20.0
62.638762607 23.0
62.643686463 23.0
62.648610319 16.0
62.653534175 31.0
62.658458031 18.0
62.663381887 30.0
62.668305743 19.0
62.673229599 24.0
62.678153455 16.0
62.683077311 23.0
62.688001167 23.0
62.692925023 31.0
62.697848879 21.0
62.702772735 27.0
62.707696591 29.0
62.712620447 17.0
62.717544303 26.0
62.722468159 23.0
62.727392015 16.0
62.732315871 30.0
62.737239727 23.0
62.742163583 25.0
62.747087439 29.0
62.752011295 19.0
62.756935151 26.0
62.761859007 20.0
62.766782863 24.0
62.771706719 26.0
62.776630575 36.0
62.781554431 30.0
62.786478287 17.0
62.791402143 34.0
62.796325999 32.0
62.801249855 25.0
62.806173711 23.0
62.811097567 40.0
62.816021423 25.0
62.820945279 25.0
62.825869135 33.0
62.830792991 31.0
62.835716847 22.0
62.840640703 21.0
62.845564559 26.0
62.850488415 26.0
62.855412271 28.0
62.860336127 33.0
62.865259983 27.0
62.870183839 26.0
62.875107695 26.0
62.880031551 30.0
62.884955407 17.0
62.889879263 23.0
62.894803119 22.0
62.899726975 34.0
62.904650831 23.0
62.909574687 17.0
62.914498543 32.0
62.919422399 29.0
62.924346255 32.0
62.929270111 33.0
62.934193967 25.0
62.939117823 31.0
62.944041679 35.0
62.948965535 34.0
62.953889391 32.0
62.958813247 27.0
62.963737104 25.0
62.968660960 22.0
62.973584816 23.0
62.978508672 29.0
62.983432528 27.0
62.988356384 39.0
62.993280240 39.0
62.998204096 32.0
63.003127952 25.0
63.008051808 38.0
63.012975664 28.0
63.017899520 43.0
63.022823376 30.0
63.027747232 24.0
63.032671088 26.0
63.037594944 33.0
63.042518800 33.0
63.047442656 28.0
63.052366512 31.0
63.057290368 23.0
63.062214224 19.0
63.067138080 45.0
63.072061936 43.0
63.076985792 29.0
63.081909648 28.0
63.086833504 31.0
63.091757360 39.0
63.096681216 36.0
63.101605072 26.0
63.106528928 26.0
63.111452784 35.0
63.116376640 24.0
63.121300496 29.0
63.126224352 29.0
63.131148208 35.0
63.136072064 31.0
63.140995920 30.0
63.145919776 30.0
63.150843632 36.0
63.155767488 31.0
63.160691344 33.0
63.165615200 48.0
63.170539056 35.0
63.175462912 37.0
63.180386768 37.0
63.185310624 35.0
63.190234480 34.0
63.195158336 37.0
63.200082192 39.0
63.205006048 39.0
63.209929904 31.0
63.214853760 24.0
63.219777616 25.0
63.224701472 33.0
63.229625328 30.0
63.234549184 34.0
63.239473040 38.0
63.244396896 37.0
63.249320752 37.0
63.254244608 28.0
63.259168464 31.0
63.264092320 43.0
63.269016176 41.0
63.273940032 35.0
63.278863888 38.0
63.283787744 37.0
63.288711600 37.0
63.293635456 33.0
63.298559312 33.0
63.303483168 37.0
63.308407024 57.0
63.313330880 34.0
63.318254736 41.0
63.323178592 33.0
63.328102448 22.0
63.333026304 49.0
63.337950161 39.0
63.342874017 33.0
63.347797873 33.0
63.352721729 40.0
63.357645585 39.0
63.362569441 37.0
63.367493297 54.0
63.372417153 34.0
63.377341009 35.0
63.382264865 36.0
63.387188721 39.0
63.392112577 35.0
63.397036433 36.0
63.401960289 37.0
63.406884145 41.0
63.411808001 34.0
63.416731857 51.0
63.421655713 42.0
63.426579569 42.0
63.431503425 42.0
63.436427281 54.0
63.441351137 35.0
63.446274993 45.0
63.451198849 32.0
63.456122705 41.0
63.461046561 48.0
63.465970417 33.0
63.470894273 46.0
63.475818129 36.0
63.480741985 41.0
63.485665841 49.0
63.490589697 48.0
63.495513553 37.0
63.500437409 41.0
63.505361265 40.0
63.510285121 41.0
63.515208977 46.0
63.520132833 41.0
63.525056689 50.0
63.529980545 38.0
63.534904401 42.0
63.539828257 37.0
63.544752113 43.0
63.549675969 29.0
63.554599825 39.0
63.559523681 34.0
63.564447537 58.0
63.569371393 60.0
63.574295249 46.0
63.579219105 42.0
63.584142961 50.0
63.589066817 50.0
63.593990673 52.0
63.598914529 45.0
63.603838385 46.0
63.608762241 48.0
63.613686097 58.0
63.618609953 36.0
63.623533809 45.0
63.628457665 47.0
63.633381521 48.0
63.638305377 42.0
63.643229233 56.0
63.648153089 47.0
63.653076945 63.0
63.658000801 57.0
63.662924657 46.0
63.667848513 60.0
63.672772369 44.0
63.677696225 59.0
63.682620081 44.0
63.687543937 49.0
63.692467793 55.0
63.697391649 50.0
63.702315505 47.0
63.707239362 63.0
63.712163218 48.0
63.717087074 65.0
63.722010930 50.0
63.726934786 56.0
63.731858642 48.0
63.736782498 59.0
63.741706354 66.0
63.746630210 62.0
63.751554066 57.0
63.756477922 50.0
63.761401778 58.0
63.766325634 68.0
63.771249490 68.0
63.776173346 59.0
63.781097202 64.0
63.786021058 60.0
63.790944914 64.0
63.795868770 65.0
63.800792626 59.0
63.805716482 59.0
63.810640338 69.0
63.815564194 56.0
63.820488050 66.0
63.825411906 97.0
63.830335762 64.0
63.835259618 53.0
63.840183474 69.0
63.845107330 78.0
63.850031186 70.0
63.854955042 62.0
63.859878898 63.0
63.864802754 71.0
63.869726610 74.0
63.874650466 77.0
63.879574322 70.0
63.884498178 93.0
63.889422034 74.0
63.894345890 65.0
63.899269746 66.0
63.904193602 81.0
63.909117458 72.0
63.914041314 66.0
63.918965170 77.0
63.923889026 76.0
63.928812882 70.0
63.933736738 83.0
63.938660594 88.0
63.943584450 83.0
63.948508306 89.0
63.953432162 86.0
63.958356018 76.0
63.963279874 107.0
63.968203730 102.0
63.973127586 75.0
63.978051442 78.0
63.982975298 90.0
63.987899154 84.0
63.992823010 74.0
63.997746866 89.0
64.002670722 99.0
64.007594578 112.0
64.012518434 95.0
64.017442290 111.0
64.022366146 91.0
64.027290002 111.0
64.032213858 95.0
64.037137714 101.0
64.042061570 109.0
64.046985426 112.0
64.051909282 114.0
64.056833138 112.0
64.061756994 110.0
64.066680850 115.0
64.071604706 138.0
64.076528563 120.0
64.081452419 110.0
64.086376275 104.0
64.091300131 112.0
64.096223987 111.0
64.101147843 141.0
64.106071699 134.0
64.110995555 122.0
64.115919411 122.0
64.120843267 140.0
64.125767123 138.0
64.130690979 122.0
64.135614835 146.0
64.140538691 132.0
64.145462547 124.0
64.150386403 165.0
64.155310259 132.0
64.160234115 148.0
64.165157971 162.0
64.170081827 157.0
64.175005683 150.0
64.179929539 146.0
64.184853395 158.0
64.189777251 175.0
64.194701107 149.0
64.199624963 163.0
64.204548819 198.0
64.209472675 187.0
64.214396531 171.0
64.219320387 176.0
64.224244243 177.0
64.229168099 203.0
64.234091955 210.0
64.239015811 211.0
64.243939667 193.0
64.248863523 201.0
64.253787379 227.0
64.258711235 204.0
64.263635091 240.0
64.268558947 222.0
64.273482803 231.0
64.278406659 247.0
64.283330515 264.0
64.288254371 234.0
64.293178227 268.0
64.298102083 278.0
64.303025939 267.0
64.307949795 281.0
64.312873651 282.0
64.317797507 283.0
64.322721363 304.0
64.327645219 285.0
64.332569075 273.0
64.337492931 290.0
64.342416787 319.0
64.347340643 335.0
64.352264499 340.0
64.357188355 346.0
64.362112211 332.0
64.367036067 351.0
64.371959923 389.0
64.376883779 400.0
64.381807635 402.0
64.386731491 386.0
64.391655347 396.0
64.396579203 425.0
64.401503059 447.0
64.406426915 460.0
64.411350771 466.0
64.416274627 474.0
64.421198483 459.0
64.426122339 509.0
64.431046195 518.0
64.435970051 488.0
64.440893907 543.0
64.445817764 509.0
64.450741620 513.0
64.455665476 595.0
64.460589332 586.0
64.465513188 636.0
64.470437044 592.0
64.475360900 636.0
64.480284756 686.0
64.485208612 697.0
64.490132468 718.0
64.495056324 730.0
64.499980180 796.0
64.504904036 760.0
64.509827892 862.0
64.514751748 878.0
64.519675604 925.0
64.524599460 972.0
64.529523316 952.0
64.534447172 1021.0
64.539371028 1075.0
64.544294884 1043.0
64.549218740 1130.0
64.554142596 1121.0
64.559066452 1223.0
64.563990308 1213.0
64.568914164 1310.0
64.573838020 1325.0
64.578761876 1423.0
64.583685732 1486.0
64.588609588 1563.0
64.593533444 1596.0
64.598457300 1620.0
64.603381156 1676.0
64.608305012 1732.0
64.613228868 1766.0
64.618152724 1868.0
64.623076580 1897.0
64.628000436 1986.0
64.632924292 2045.0
64.637848148 2116.0
64.642772004 2276.0
64.647695860 2141.0
64.652619716 2185.0
64.657543572 2282.0
64.662467428 2238.0
64.667391284 2348.0
64.672315140 2353.0
64.677238996 2325.0
64.682162852 2375.0
64.687086708 2399.0
64.692010564 2395.0
64.696934420 2353.0
64.701858276 2359.0
64.706782132 2447.0
64.711705988 2406.0
64.716629844 2343.0
64.721553700 2361.0
64.726477556 2342.0
64.731401412 2287.0
64.736325268 2343.0
64.741249124 2247.0
64.746172980 2257.0
64.751096836 2195.0
64.756020692 2155.0
64.760944548 2188.0
64.765868404 2113.0
64.770792260 2076.0
64.775716116 2086.0
64.780639972 2092.0
64.785563828 1988.0
64.790487684 2025.0
64.795411540 1967.0
64.800335396 1974.0
64.805259252 1960.0
64.810183108 1996.0
64.815106965 1923.0
64.820030821 1878.0
64.824954677 1847.0
64.829878533 1804.0
64.834802389 1831.0
64.839726245 1740.0
64.844650101 1768.0
64.849573957 1787.0
64.854497813 1675.0
64.859421669 1721.0
64.864345525 1720.0
64.869269381 1616.0
64.874193237 1661.0
64.879117093 1554.0
64.884040949 1601.0
64.888964805 1480.0
64.893888661 1518.0
64.898812517 1462.0
64.903736373 1408.0
64.908660229 1263.0
64.913584085 1315.0
64.918507941 1304.0
64.923431797 1277.0
64.928355653 1246.0
64.933279509 1237.0
64.938203365 1109.0
64.943127221 1157.0
64.948051077 1049.0
64.952974933 1056.0
64.957898789 1023.0
64.962822645 965.0
64.967746501 952.0
64.972670357 886.0
64.977594213 842.0
64.982518069 800.0
64.987441925 854.0
64.992365781 731.0
64.997289637 727.0
65.002213493 682.0
65.007137349 713.0
65.012061205 717.0
65.016985061 641.0
65.021908917 657.0
65.026832773 573.0
65.031756629 593.0
65.036680485 557.0
65.041604341 543.0
65.046528197 506.0
65.051452053 488.0
65.056375909 483.0
65.061299765 431.0
65.066223621 417.0
65.071147477 399.0
65.076071333 394.0
65.080995189 424.0
65.085919045 400.0
65.090842901 368.0
65.095766757 351.0
65.100690613 341.0
65.105614469 358.0
65.110538325 347.0
65.115462181 336.0
65.120386037 295.0
65.125309893 275.0
65.130233749 285.0
65.135157605 264.0
65.140081461 261.0
65.145005317 271.0
65.149929173 247.0
65.154853029 242.0
65.159776885 216.0
65.164700741 242.0
65.169624597 215.0
65.174548453 205.0
65.179472309 248.0
65.184396165 209.0
65.189320022 226.0
65.194243878 212.0
65.199167734 184.0
65.204091590 197.0
65.209015446 189.0
65.213939302 183.0
65.218863158 196.0
65.223787014 155.0
65.228710870 170.0
65.233634726 187.0
65.238558582 183.0
65.243482438 185.0
65.248406294 134.0
65.253330150 140.0
65.258254006 152.0
65.263177862 153.0
65.268101718 155.0
65.273025574 132.0
65.277949430 152.0
65.282873286 132.0
65.287797142 123.0
65.292720998 142.0
65.297644854 119.0
65.302568710 133.0
65.307492566 114.0
65.312416422 121.0
65.317340278 121.0
65.322264134 115.0
65.327187990 111.0
65.332111846 119.0
65.337035702 108.0
65.341959558 124.0
65.346883414 114.0
65.351807270 108.0
65.356731126 104.0
65.361654982 105.0
65.366578838 114.0
65.371502694 107.0
65.376426550 93.0
65.381350406 101.0
65.386274262 95.0
65.391198118 96.0
65.396121974 93.0
65.401045830 88.0
65.405969686 107.0
65.410893542 109.0
65.415817398 94.0
65.420741254 98.0
65.425665110 101.0
65.430588966 95.0
65.435512822 87.0
65.440436678 94.0
65.445360534 87.0
65.450284390 109.0
65.455208246 100.0
65.460132102 87.0
65.465055958 73.0
65.469979814 92.0
65.474903670 86.0
65.479827526 74.0
65.484751382 84.0
65.489675238 97.0
65.494599094 83.0
65.499522950 78.0
65.504446806 92.0
65.509370662 78.0
65.514294518 93.0
65.519218374 79.0
65.524142230 82.0
65.529066086 73.0
65.533989942 82.0
65.538913798 87.0
65.543837654 76.0
65.548761510 94.0
65.553685366 88.0
65.558609223 69.0
65.563533079 79.0
65.568456935 73.0
65.573380791 72.0
65.578304647 68.0
65.583228503 61.0
65.588152359 82.0
65.593076215 78.0
65.598000071 58.0
65.602923927 45.0
65.607847783 79.0
65.612771639 73.0
65.617695495 71.0
65.622619351 73.0
65.627543207 90.0
65.632467063 71.0
65.637390919 57.0
65.642314775 67.0
65.647238631 69.0
65.652162487 66.0
65.657086343 56.0
65.662010199 81.0
65.666934055 65.0
65.671857911 70.0
65.676781767 59.0
65.681705623 72.0
65.686629479 60.0
65.691553335 61.0
65.696477191 59.0
65.701401047 68.0
65.706324903 61.0
65.711248759 74.0
65.716172615 62.0
65.721096471 67.0
65.726020327 52.0
65.730944183 66.0
65.735868039 64.0
65.740791895 75.0
65.745715751 58.0
65.750639607 51.0
65.755563463 56.0
65.760487319 64.0
65.765411175 61.0
65.770335031 58.0
65.775258887 65.0
65.780182743 56.0
65.785106599 61.0
65.790030455 66.0
65.794954311 57.0
65.799878167 55.0
65.804802023 69.0
65.809725879 53.0
65.814649735 60.0
65.819573591 64.0
65.824497447 58.0
65.829421303 61.0
65.834345159 74.0
65.839269015 61.0
65.844192871 58.0
65.849116727 57.0
65.854040583 83.0
65.858964439 61.0
65.863888295 55.0
65.868812151 41.0
65.873736007 71.0
65.878659863 54.0
65.883583719 58.0
65.888507575 66.0
65.893431431 48.0
65.898355287 54.0
65.903279143 72.0
65.908202999 56.0
65.913126855 55.0
65.918050711 71.0
65.922974567 68.0
65.927898424 63.0
65.932822280 60.0
65.937746136 69.0
65.942669992 73.0
65.947593848 71.0
65.952517704 66.0
65.957441560 50.0
65.962365416 51.0
65.967289272 66.0
65.972213128 54.0
65.977136984 65.0
65.982060840 53.0
65.986984696 59.0
65.991908552 56.0
65.996832408 54.0
66.001756264 50.0
66.006680120 49.0
66.011603976 75.0
66.016527832 59.0
66.021451688 50.0
66.026375544 75.0
66.031299400 53.0
66.036223256 74.0
66.041147112 65.0
66.046070968 61.0
66.050994824 69.0
66.055918680 74.0
66.060842536 60.0
66.065766392 58.0
66.070690248 62.0
66.075614104 68.0
66.080537960 61.0
66.085461816 67.0
66.090385672 71.0
66.095309528 74.0
66.100233384 59.0
66.105157240 65.0
66.110081096 56.0
66.115004952 72.0
66.119928808 59.0
66.124852664 71.0
66.129776520 60.0
66.134700376 69.0
66.139624232 63.0
66.144548088 71.0
66.149471944 53.0
66.154395800 57.0
66.159319656 68.0
66.164243512 67.0
66.169167368 67.0
66.174091224 68.0
66.179015080 67.0
66.183938936 55.0
66.188862792 60.0
66.193786648 65.0
66.198710504 60.0
66.203634360 80.0
66.208558216 67.0
66.213482072 74.0
66.218405928 76.0
66.223329784 71.0
66.228253640 64.0
66.233177496 72.0
66.238101352 75.0
66.243025208 80.0
66.247949064 72.0
66.252872920 63.0
66.257796776 57.0
66.262720632 74.0
66.267644488 73.0
66.272568344 61.0
66.277492200 66.0
66.282416056 69.0
66.287339912 71.0
66.292263768 87.0
66.297187625 68.0
66.302111481 71.0
66.307035337 68.0
66.311959193 64.0
66.316883049 93.0
66.321806905 71.0
66.326730761 75.0
66.331654617 73.0
66.336578473 71.0
66.341502329 86.0
66.346426185 60.0
66.351350041 65.0
66.356273897 70.0
66.361197753 93.0
66.366121609 67.0
66.371045465 59.0
66.375969321 81.0
66.380893177 85.0
66.385817033 77.0
66.390740889 76.0
66.395664745 77.0
66.400588601 79.0
66.405512457 67.0
66.410436313 75.0
66.415360169 75.0
66.420284025 78.0
66.425207881 94.0
66.430131737 88.0
66.435055593 78.0
66.439979449 88.0
66.444903305 65.0
66.449827161 62.0
66.454751017 84.0
66.459674873 75.0
66.464598729 78.0
66.469522585 73.0
66.474446441 81.0
66.479370297 77.0
66.484294153 85.0
66.489218009 79.0
66.494141865 84.0
66.499065721 75.0
66.503989577 78.0
66.508913433 87.0
66.513837289 68.0
66.518761145 93.0
66.523685001 77.0
66.528608857 68.0
66.533532713 91.0
66.538456569 78.0
66.543380425 84.0
66.548304281 71.0
66.553228137 90.0
66.558151993 80.0
66.563075849 100.0
66.567999705 77.0
66.572923561 95.0
66.577847417 89.0
66.582771273 86.0
66.587695129 105.0
66.592618985 93.0
66.597542841 80.0
66.602466697 77.0
66.607390553 107.0
66.612314409 83.0
66.617238265 90.0
66.622162121 84.0
66.627085977 102.0
66.632009833 89.0
66.636933689 84.0
66.641857545 107.0
66.646781401 96.0
66.651705257 92.0
66.656629113 83.0
66.661552969 97.0
66.666476826 85.0
66.671400682 103.0
66.676324538 111.0
66.681248394 95.0
66.686172250 111.0
66.691096106 116.0
66.696019962 99.0
66.700943818 74.0
66.705867674 95.0
66.710791530 100.0
66.715715386 94.0
66.720639242 106.0
66.725563098 101.0
66.730486954 98.0
66.735410810 93.0
66.740334666 95.0
66.745258522 102.0
66.750182378 113.0
66.755106234 102.0
66.760030090 104.0
66.764953946 114.0
66.769877802 93.0
66.774801658 97.0
66.779725514 97.0
66.784649370 126.0
66.789573226 118.0
66.794497082 105.0
66.799420938 121.0
66.804344794 104.0
66.809268650 111.0
66.814192506 108.0
66.819116362 113.0
66.824040218 105.0
66.828964074 107.0
66.833887930 118.0
66.838811786 116.0
66.843735642 106.0
66.848659498 109.0
66.853583354 99.0
66.858507210 121.0
66.863431066 106.0
66.868354922 102.0
66.873278778 108.0
66.878202634 123.0
66.883126490 125.0
66.888050346 126.0
66.892974202 117.0
66.897898058 98.0
66.902821914 126.0
66.907745770 109.0
66.912669626 129.0
66.917593482 104.0
66.922517338 123.0
66.927441194 113.0
66.932365050 124.0
66.937288906 109.0
66.942212762 131.0
66.947136618 114.0
66.952060474 107.0
66.956984330 127.0
66.961908186 128.0
66.966832042 116.0
66.971755898 123.0
66.976679754 127.0
66.981603610 121.0
66.986527466 136.0
66.991451322 145.0
66.996375178 115.0
67.001299034 107.0
67.006222890 132.0
67.011146746 124.0
67.016070602 137.0
67.020994458 134.0
67.025918314 131.0
67.030842170 138.0
67.035766026 135.0
67.040689883 128.0
67.045613739 152.0
67.050537595 121.0
67.055461451 151.0
67.060385307 138.0
67.065309163 129.0
67.070233019 143.0
67.075156875 136.0
67.080080731 155.0
67.085004587 148.0
67.089928443 149.0
67.094852299 154.0
67.099776155 147.0
67.104700011 137.0
67.109623867 154.0
67.114547723 152.0
67.119471579 158.0
67.124395435 145.0
67.129319291 161.0
67.134243147 172.0
67.139167003 159.0
67.144090859 140.0
67.149014715 148.0
67.153938571 151.0
67.158862427 143.0
67.163786283 158.0
67.168710139 137.0
67.173633995 154.0
67.178557851 160.0
67.183481707 146.0
67.188405563 163.0
67.193329419 165.0
67.198253275 139.0
67.203177131 178.0
67.208100987 152.0
67.213024843 162.0
67.217948699 157.0
67.222872555 178.0
67.227796411 151.0
67.232720267 166.0
67.237644123 178.0
67.242567979 165.0
67.247491835 173.0
67.252415691 181.0
67.257339547 167.0
67.262263403 202.0
67.267187259 184.0
67.272111115 194.0
67.277034971 181.0
67.281958827 183.0
67.286882683 187.0
67.291806539 189.0
67.296730395 190.0
67.301654251 209.0
67.306578107 197.0
67.311501963 180.0
67.316425819 213.0
67.321349675 192.0
67.326273531 190.0
67.331197387 194.0
67.336121243 216.0
67.341045099 200.0
67.345968955 190.0
67.350892811 202.0
67.355816667 212.0
67.360740523 213.0
67.365664379 210.0
67.370588235 205.0
67.375512091 208.0
67.380435947 210.0
67.385359803 200.0
67.390283659 264.0
67.395207515 206.0
67.400131371 276.0
67.405055227 293.0
67.409979084 267.0
67.414902940 275.0
67.419826796 258.0
67.424750652 259.0
67.429674508 226.0
67.434598364 262.0
67.439522220 262.0
67.444446076 284.0
67.449369932 282.0
67.454293788 289.0
67.459217644 293.0
67.464141500 321.0
67.469065356 308.0
67.473989212 296.0
67.478913068 303.0
67.483836924 332.0
67.488760780 268.0
67.493684636 304.0
67.498608492 355.0
67.503532348 316.0
67.508456204 344.0
67.513380060 340.0
67.518303916 318.0
67.523227772 338.0
67.528151628 307.0
67.533075484 363.0
67.537999340 359.0
67.542923196 325.0
67.547847052 383.0
67.552770908 352.0
67.557694764 354.0
67.562618620 349.0
67.567542476 385.0
67.572466332 375.0
67.577390188 361.0
67.582314044 387.0
67.587237900 401.0
67.592161756 393.0
67.597085612 379.0
67.602009468 348.0
67.606933324 418.0
67.611857180 403.0
67.616781036 426.0
67.621704892 429.0
67.626628748 449.0
67.631552604 460.0
67.636476460 435.0
67.641400316 489.0
67.646324172 493.0
67.651248028 523.0
67.656171884 522.0
67.661095740 540.0
67.666019596 553.0
67.670943452 539.0
67.675867308 583.0
67.680791164 598.0
67.685715020 650.0
67.690638876 673.0
67.695562732 709.0
67.700486588 708.0
67.705410444 755.0
67.710334300 817.0
67.715258156 854.0
67.720182012 891.0
67.725105868 956.0
67.730029724 962.0
67.734953580 1045.0
67.739877436 1015.0
67.744801292 1078.0
67.749725148 1190.0
67.754649004 1137.0
67.759572860 1281.0
67.764496716 1245.0
67.769420572 1362.0
67.774344428 1319.0
67.779268285 1343.0
67.784192141 1410.0
67.789115997 1396.0
67.794039853 1364.0
67.798963709 1433.0
67.803887565 1485.0
67.808811421 1475.0
67.813735277 1489.0
67.818659133 1400.0
67.823582989 1375.0
67.828506845 1383.0
67.833430701 1427.0
67.838354557 1365.0
67.843278413 1350.0
67.848202269 1360.0
67.853126125 1322.0
67.858049981 1403.0
67.862973837 1350.0
67.867897693 1440.0
67.872821549 1389.0
67.877745405 1374.0
67.882669261 1429.0
67.887593117 1356.0
67.892516973 1467.0
67.897440829 1521.0
67.902364685 1541.0
67.907288541 1491.0
67.912212397 1645.0
67.917136253 1627.0
67.922060109 1821.0
67.926983965 1730.0
67.931907821 1823.0
67.936831677 1864.0
67.941755533 1951.0
67.946679389 2161.0
67.951603245 2243.0
67.956527101 2322.0
67.961450957 2501.0
67.966374813 2617.0
67.971298669 2733.0
67.976222525 2981.0
67.981146381 3223.0
67.986070237 3346.0
67.990994093 3767.0
67.995917949 3996.0
68.000841805 4376.0
68.005765661 4707.0
68.010689517 5161.0
68.015613373 5642.0
68.020537229 6349.0
68.025461085 6945.0
68.030384941 7703.0
68.035308797 8865.0
68.040232653 10116.0
68.045156509 11614.0
68.050080365 13880.0
68.055004221 16460.0
68.059928077 20300.0
68.064851933 25657.0
68.069775789 34230.0
68.074699645 45896.0
68.079623501 62841.0
68.084547357 83587.0
68.089471213 104849.0
68.094395069 121443.0
68.099318925 134797.0
68.104242781 142192.0
68.109166637 147403.0
68.114090493 148379.0
68.119014349 147510.0
68.123938205 141308.0
68.128862061 129499.0
68.133785917 111067.0
68.138709773 89098.0
68.143633629 69364.0
68.148557486 53742.0
68.153481342 42098.0
68.158405198 33549.0
68.163329054 26968.0
68.168252910 21789.0
68.173176766 18076.0
68.178100622 14970.0
68.183024478 12908.0
68.187948334 11214.0
68.192872190 10060.0
68.197796046 9178.0
68.202719902 8436.0
68.207643758 7999.0
68.212567614 7789.0
68.217491470 7710.0
68.222415326 7707.0
68.227339182 7993.0
68.232263038 8619.0
68.237186894 9073.0
68.242110750 10028.0
68.247034606 11301.0
68.251958462 13038.0
68.256882318 16339.0
68.261806174 19658.0
68.266730030 25875.0
68.271653886 33218.0
68.276577742 42347.0
68.281501598 51356.0
68.286425454 60149.0
68.291349310 66174.0
68.296273166 71843.0
68.301197022 74807.0
68.306120878 75958.0
68.311044734 74729.0
68.315968590 72618.0
68.320892446 66495.0
68.325816302 59412.0
68.330740158 49385.0
68.335664014 40307.0
68.340587870 32140.0
68.345511726 25591.0
68.350435582 19948.0
68.355359438 16116.0
68.360283294 13172.0
68.365207150 10683.0
68.370131006 9177.0
68.375054862 7642.0
68.379978718 6547.0
68.384902574 5794.0
68.389826430 4925.0
68.394750286 4393.0
68.399674142 4077.0
68.404597998 3739.0
68.409521854 3462.0
68.414445710 3138.0
68.419369566 2970.0
68.424293422 2698.0
68.429217278 2679.0
68.434141134 2415.0
68.439064990 2285.0
68.443988846 2221.0
68.448912702 2079.0
68.453836558 1967.0
68.458760414 1887.0
68.463684270 1795.0
68.468608126 1734.0
68.473531982 1635.0
68.478455838 1595.0
68.483379694 1486.0
68.488303550 1463.0
68.493227406 1422.0
68.498151262 1393.0
68.503075118 1327.0
68.507998974 1254.0
68.512922830 1285.0
68.517846687 1303.0
68.522770543 1248.0
68.527694399 1171.0
68.532618255 1166.0
68.537542111 1063.0
68.542465967 1104.0
68.547389823 1098.0
68.552313679 1062.0
68.557237535 1046.0
68.562161391 958.0
68.567085247 1000.0
68.572009103 890.0
68.576932959 888.0
68.581856815 885.0
68.586780671 871.0
68.591704527 862.0
68.596628383 852.0
68.601552239 821.0
68.606476095 849.0
68.611399951 796.0
68.616323807 768.0
68.621247663 750.0
68.626171519 740.0
68.631095375 760.0
68.636019231 697.0
68.640943087 759.0
68.645866943 659.0
68.650790799 657.0
68.655714655 635.0
68.660638511 657.0
68.665562367 650.0
68.670486223 656.0
68.675410079 625.0
68.680333935 640.0
68.685257791 632.0
68.690181647 628.0
68.695105503 570.0
68.700029359 590.0
68.704953215 583.0
68.709877071 538.0
68.714800927 521.0
68.719724783 555.0
68.724648639 538.0
68.729572495 514.0
68.734496351 499.0
68.739420207 518.0
68.744344063 523.0
68.749267919 520.0
68.754191775 479.0
68.759115631 458.0
68.764039487 504.0
68.768963343 485.0
68.773887199 439.0
68.778811055 427.0
68.783734911 465.0
68.788658767 497.0
68.793582623 425.0
68.798506479 433.0
68.803430335 469.0
68.808354191 421.0
68.813278047 415.0
68.818201903 402.0
68.823125759 424.0
68.828049615 400.0
68.832973471 414.0
68.837897327 353.0
68.842821183 410.0
68.847745039 408.0
68.852668895 372.0
68.857592751 405.0
68.862516607 353.0
68.867440463 351.0
68.872364319 340.0
68.877288175 375.0
68.882212031 353.0
68.887135887 350.0
68.892059744 350.0
68.896983600 356.0
68.901907456 337.0
68.906831312 341.0
68.911755168 360.0
68.916679024 340.0
68.921602880 321.0
68.926526736 361.0
68.931450592 332.0
68.936374448 338.0
68.941298304 313.0
68.946222160 321.0
68.951146016 324.0
68.956069872 323.0
68.960993728 327.0
68.965917584 303.0
68.970841440 336.0
68.975765296 284.0
68.980689152 293.0
68.985613008 317.0
68.990536864 288.0
68.995460720 287.0
69.000384576 291.0
69.005308432 286.0
69.010232288 295.0
69.015156144 262.0
69.020080000 295.0
69.025003856 275.0
69.029927712 263.0
69.034851568 274.0
69.039775424 266.0
69.044699280 298.0
69.049623136 286.0
69.054546992 286.0
69.059470848 285.0
69.064394704 266.0
69.069318560 269.0
69.074242416 211.0
69.079166272 275.0
69.084090128 220.0
69.089013984 272.0
69.093937840 214.0
69.098861696 210.0
69.103785552 267.0
69.108709408 257.0
69.113633264 277.0
69.118557120 217.0
69.123480976 209.0
69.128404832 196.0
69.133328688 271.0
69.138252544 219.0
69.143176400 207.0
69.148100256 190.0
69.153024112 193.0
69.157947968 214.0
69.162871824 217.0
69.167795680 199.0
69.172719536 182.0
69.177643392 182.0
69.182567248 190.0
69.187491104 196.0
69.192414960 171.0
69.197338816 199.0
69.202262672 199.0
69.207186528 191.0
69.212110384 194.0
69.217034240 186.0
69.221958096 199.0
69.226881952 193.0
69.231805808 164.0
69.236729664 182.0
69.241653520 173.0
69.246577376 188.0
69.251501232 168.0
69.256425088 160.0
69.261348945 170.0
69.266272801 167.0
69.271196657 186.0
69.276120513 190.0
69.281044369 189.0
69.285968225 206.0
69.290892081 183.0
69.295815937 168.0
69.300739793 158.0
69.305663649 160.0
69.310587505 139.0
69.315511361 183.0
69.320435217 147.0
69.325359073 162.0
69.330282929 133.0
69.335206785 166.0
69.340130641 141.0
69.345054497 156.0
69.349978353 157.0
69.354902209 139.0
69.359826065 138.0
69.364749921 134.0
69.369673777 144.0
69.374597633 154.0
69.379521489 134.0
69.384445345 151.0
69.389369201 136.0
69.394293057 124.0
69.399216913 134.0
69.404140769 152.0
69.409064625 139.0
69.413988481 126.0
69.418912337 137.0
69.423836193 130.0
69.428760049 136.0
69.433683905 133.0
69.438607761 121.0
69.443531617 156.0
69.448455473 118.0
69.453379329 124.0
69.458303185 120.0
69.463227041 142.0
69.468150897 108.0
69.473074753 133.0
69.477998609 119.0
69.482922465 140.0
69.487846321 134.0
69.492770177 108.0
69.497694033 155.0
69.502617889 128.0
69.507541745 109.0
69.512465601 127.0
69.517389457 130.0
69.522313313 108.0
69.527237169 112.0
69.532161025 100.0
69.537084881 110.0
69.542008737 118.0
69.546932593 112.0
69.551856449 112.0
69.556780305 104.0
69.561704161 119.0
69.566628017 104.0
69.571551873 108.0
69.576475729 113.0
69.581399585 99.0
69.586323441 110.0
69.591247297 110.0
69.596171153 96.0
69.601095009 112.0
69.606018865 116.0
69.610942721 100.0
69.615866577 116.0
69.620790433 96.0
69.625714289 118.0
69.630638146 104.0
69.635562002 107.0
69.640485858 121.0
69.645409714 104.0
69.650333570 86.0
69.655257426 104.0
69.660181282 103.0
69.665105138 104.0
69.670028994 92.0
69.674952850 98.0
69.679876706 83.0
69.684800562 101.0
69.689724418 100.0
69.694648274 90.0
69.699572130 84.0
69.704495986 98.0
69.709419842 85.0
69.714343698 107.0
69.719267554 109.0
69.724191410 84.0
69.729115266 84.0
69.734039122 116.0
69.738962978 94.0
69.743886834 70.0
69.748810690 83.0
69.753734546 90.0
69.758658402 75.0
69.763582258 79.0
69.768506114 85.0
69.773429970 74.0
69.778353826 86.0
69.783277682 82.0
69.788201538 74.0
69.793125394 92.0
69.798049250 74.0
69.802973106 87.0
69.807896962 74.0
69.812820818 73.0
69.817744674 69.0
69.822668530 76.0
69.827592386 59.0
69.832516242 75.0
69.837440098 71.0
69.842363954 85.0
69.847287810 77.0
69.852211666 71.0
69.857135522 73.0
69.862059378 69.0
69.866983234 81.0
69.871907090 90.0
69.876830946 64.0
69.881754802 68.0
69.886678658 72.0
69.891602514 62.0
69.896526370 79.0
69.901450226 69.0
69.906374082 69.0
69.911297938 69.0
69.916221794 66.0
69.921145650 57.0
69.926069506 70.0
69.930993362 72.0
69.935917218 71.0
69.940841074 68.0
69.945764930 69.0
69.950688786 64.0
69.955612642 73.0
69.960536498 62.0
69.965460354 66.0
69.970384210 73.0
69.975308066 64.0
69.980231922 71.0
69.985155778 66.0
69.990079634 60.0
69.995003490 60.0
69.999927347 59.0
70.004851203 66.0
70.009775059 71.0
70.014698915 69.0
70.019622771 50.0
70.024546627 68.0
70.029470483 61.0
70.034394339 66.0
70.039318195 58.0
70.044242051 47.0
70.049165907 64.0
70.054089763 48.0
70.059013619 62.0
70.063937475 51.0
70.068861331 59.0
70.073785187 52.0
70.078709043 53.0
70.083632899 64.0
70.088556755 59.0
70.093480611 50.0
70.098404467 52.0
70.103328323 40.0
70.108252179 66.0
70.113176035 54.0
70.118099891 56.0
70.123023747 64.0
70.127947603 35.0
70.132871459 63.0
70.137795315 52.0
70.142719171 32.0
70.147643027 44.0
70.152566883 55.0
70.157490739 47.0
70.162414595 43.0
70.167338451 48.0
70.172262307 59.0
70.177186163 39.0
70.182110019 51.0
70.187033875 50.0
70.191957731 44.0
70.196881587 48.0
70.201805443 48.0
70.206729299 50.0
70.211653155 47.0
70.216577011 54.0
70.221500867 49.0
70.226424723 52.0
70.231348579 48.0
70.236272435 36.0
70.241196291 44.0
70.246120147 48.0
70.251044003 49.0
70.255967859 43.0
70.260891715 46.0
70.265815571 35.0
70.270739427 54.0
70.275663283 54.0
70.280587139 40.0
70.285510995 53.0
70.290434851 39.0
70.295358707 36.0
70.300282563 49.0
70.305206419 50.0
70.310130275 47.0
70.315054131 51.0
70.319977987 44.0
70.324901843 31.0
70.329825699 52.0
70.334749555 46.0
70.339673411 39.0
70.344597267 36.0
70.349521123 42.0
70.354444979 37.0
70.359368835 44.0
70.364292691 45.0
70.369216548 46.0
70.374140404 43.0
70.379064260 43.0
70.383988116 45.0
70.388911972 35.0
70.393835828 38.0
70.398759684 39.0
70.403683540 43.0
70.408607396 39.0
70.413531252 42.0
70.418455108 36.0
70.423378964 41.0
70.428302820 35.0
70.433226676 31.0
70.438150532 36.0
70.443074388 49.0
70.447998244 38.0
70.452922100 42.0
70.457845956 46.0
70.462769812 31.0
70.467693668 34.0
70.472617524 45.0
70.477541380 35.0
70.482465236 46.0
70.487389092 36.0
70.492312948 36.0
70.497236804 29.0
70.502160660 39.0
70.507084516 33.0
70.512008372 36.0
70.516932228 34.0
70.521856084 43.0
70.526779940 38.0
70.531703796 33.0
70.536627652 34.0
70.541551508 30.0
70.546475364 36.0
70.551399220 36.0
70.556323076 38.0
70.561246932 28.0
70.566170788 32.0
70.571094644 30.0
70.576018500 29.0
70.580942356 41.0
70.585866212 33.0
70.590790068 24.0
70.595713924 31.0
70.600637780 39.0
70.605561636 29.0
70.610485492 33.0
70.615409348 40.0
70.620333204 35.0
70.625257060 46.0
70.630180916 28.0
70.635104772 42.0
70.640028628 30.0
70.644952484 33.0
70.649876340 39.0
70.654800196 26.0
70.659724052 25.0
70.664647908 34.0
70.669571764 39.0
70.674495620 24.0
70.679419476 30.0
70.684343332 33.0
70.689267188 43.0
70.694191044 26.0
70.699114900 38.0
70.704038756 23.0
70.708962612 38.0
70.713886468 28.0
70.718810324 32.0
70.723734180 35.0
70.728658036 24.0
70.733581892 20.0
70.738505748 32.0
70.743429605 24.0
70.748353461 42.0
70.753277317 29.0
70.758201173 27.0
70.763125029 32.0
70.768048885 33.0
70.772972741 31.0
70.777896597 27.0
70.782820453 25.0
70.787744309 27.0
70.792668165 28.0
70.797592021 28.0
70.802515877 31.0
70.807439733 34.0
70.812363589 35.0
70.817287445 24.0
70.822211301 27.0
70.827135157 27.0
70.832059013 26.0
70.836982869 38.0
70.841906725 29.0
70.846830581 28.0
70.851754437 43.0
70.856678293 31.0
70.861602149 35.0
70.866526005 32.0
70.871449861 35.0
70.876373717 29.0
70.881297573 24.0
70.886221429 24.0
70.891145285 35.0
70.896069141 30.0
70.900992997 25.0
70.905916853 26.0
70.910840709 23.0
70.915764565 32.0
70.920688421 27.0
70.925612277 38.0
70.930536133 32.0
70.935459989 29.0
70.940383845 26.0
70.945307701 29.0
70.950231557 26.0
70.955155413 27.0
70.960079269 26.0
70.965003125 31.0
70.969926981 24.0
70.974850837 31.0
70.979774693 29.0
70.984698549 29.0
70.989622405 24.0
70.994546261 34.0
70.999470117 27.0
71.004393973 27.0
71.009317829 31.0
71.014241685 21.0
71.019165541 26.0
71.024089397 25.0
71.029013253 23.0
71.033937109 35.0
71.038860965 27.0
71.043784821 28.0
71.048708677 22.0
71.053632533 25.0
71.058556389 22.0
71.063480245 25.0
71.068404101 27.0
71.073327957 22.0
71.078251813 23.0
71.083175669 22.0
71.088099525 29.0
71.093023381 17.0
71.097947237 21.0
71.102871093 24.0
71.107794949 25.0
71.112718806 32.0
71.117642662 29.0
71.122566518 27.0
71.127490374 26.0
71.132414230 32.0
71.137338086 23.0
71.142261942 29.0
71.147185798 33.0
71.152109654 25.0
71.157033510 30.0
71.161957366 16.0
71.166881222 29.0
71.171805078 22.0
71.176728934 22.0
71.181652790 17.0
71.186576646 30.0
71.191500502 27.0
71.196424358 23.0
71.201348214 22.0
71.206272070 21.0
71.211195926 22.0
71.216119782 22.0
71.221043638 22.0
71.225967494 19.0
71.230891350 17.0
71.235815206 27.0
71.240739062 29.0
71.245662918 26.0
71.250586774 23.0
71.255510630 24.0
71.260434486 19.0
71.265358342 27.0
71.270282198 29.0
71.275206054 17.0
71.280129910 17.0
71.285053766 21.0
71.289977622 31.0
71.294901478 20.0
71.299825334 23.0
71.304749190 29.0
71.309673046 26.0
71.314596902 16.0
71.319520758 26.0
71.324444614 20.0
71.329368470 15.0
71.334292326 22.0
71.339216182 26.0
71.344140038 28.0
71.349063894 24.0
71.353987750 21.0
71.358911606 20.0
71.363835462 27.0
71.368759318 20.0
71.373683174 26.0
71.378607030 28.0
71.383530886 25.0
71.388454742 22.0
71.393378598 28.0
71.398302454 20.0
71.403226310 26.0
71.408150166 19.0
71.413074022 24.0
71.417997878 19.0
71.422921734 19.0
71.427845590 22.0
71.432769446 16.0
71.437693302 25.0
71.442617158 28.0
71.447541014 27.0
71.452464870 25.0
71.457388726 21.0
71.462312582 22.0
71.467236438 25.0
71.472160294 22.0
71.477084150 21.0
71.482008007 17.0
71.486931863 20.0
71.491855719 13.0
71.496779575 20.0
71.501703431 26.0
71.506627287 26.0
71.511551143 26.0
71.516474999 25.0
71.521398855 22.0
71.526322711 21.0
71.531246567 28.0
71.536170423 29.0
71.541094279 17.0
71.546018135 19.0
71.550941991 17.0
71.555865847 21.0
71.560789703 18.0
71.565713559 20.0
71.570637415 24.0
71.575561271 16.0
71.580485127 25.0
71.585408983 14.0
71.590332839 20.0
71.595256695 18.0
71.600180551 25.0
71.605104407 27.0
71.610028263 12.0
71.614952119 18.0
71.619875975 21.0
71.624799831 23.0
71.629723687 27.0
71.634647543 16.0
71.639571399 23.0
71.644495255 29.0
71.649419111 24.0
71.654342967 22.0
71.659266823 19.0
71.664190679 16.0
71.669114535 18.0
71.674038391 26.0
71.678962247 22.0
71.683886103 19.0
71.688809959 26.0
71.693733815 19.0
71.698657671 20.0
71.703581527 32.0
71.708505383 20.0
71.713429239 27.0
71.718353095 11.0
71.723276951 19.0
71.728200807 21.0
71.733124663 17.0
71.738048519 22.0
71.742972375 17.0
71.747896231 21.0
71.752820087 20.0
71.757743943 22.0
71.762667799 20.0
71.767591655 22.0
71.772515511 23.0
71.777439367 20.0
71.782363223 11.0
71.787287079 24.0
71.792210935 17.0
71.797134791 22.0
71.802058647 22.0
71.806982503 11.0
71.811906359 23.0
71.816830215 18.0
71.821754071 23.0
71.826677927 12.0
71.831601783 27.0
71.836525639 19.0
71.841449495 19.0
71.846373351 18.0
71.851297208 19.0
71.856221064 14.0
71.861144920 16.0
71.866068776 26.0
71.870992632 16.0
71.875916488 19.0
71.880840344 22.0
71.885764200 10.0
71.890688056 23.0
71.895611912 20.0
71.900535768 18.0
71.905459624 27.0
71.910383480 14.0
71.915307336 16.0
71.920231192 23.0
71.925155048 36.0
71.930078904 14.0
71.935002760 21.0
71.939926616 15.0
71.944850472 20.0
71.949774328 18.0
71.954698184 16.0
71.959622040 22.0
71.964545896 13.0
71.969469752 16.0
71.974393608 15.0
71.979317464 20.0
71.984241320 21.0
71.989165176 19.0
71.994089032 15.0
71.999012888 13.0
72.003936744 19.0
72.008860600 11.0
72.013784456 14.0
72.018708312 16.0
72.023632168 23.0
72.028556024 23.0
72.033479880 14.0
72.038403736 17.0
72.043327592 20.0
72.048251448 18.0
72.053175304 18.0
72.058099160 22.0
72.063023016 27.0
72.067946872 18.0
72.072870728 19.0
72.077794584 14.0
72.082718440 21.0
72.087642296 17.0
72.092566152 21.0
72.097490008 19.0
72.102413864 15.0
72.107337720 19.0
72.112261576 16.0
72.117185432 15.0
72.122109288 21.0
72.127033144 14.0
72.131957000 16.0
72.136880856 18.0
72.141804712 14.0
72.146728568 25.0
72.151652424 24.0
72.156576280 21.0
72.161500136 22.0
72.166423992 27.0
72.171347848 23.0
72.176271704 27.0
72.181195560 13.0
72.186119416 24.0
72.191043272 18.0
72.195967128 23.0
72.200890984 18.0
72.205814840 15.0
72.210738696 16.0
72.215662552 17.0
72.220586409 17.0
72.225510265 25.0
72.230434121 17.0
72.235357977 18.0
72.240281833 21.0
72.245205689 18.0
72.250129545 10.0
72.255053401 15.0
72.259977257 19.0
72.264901113 26.0
72.269824969 18.0
72.274748825 9.0
72.279672681 20.0
72.284596537 23.0
72.289520393 14.0
72.294444249 20.0
72.299368105 13.0
72.304291961 12.0
72.309215817 20.0
72.314139673 27.0
72.319063529 20.0
72.323987385 19.0
72.328911241 13.0
72.333835097 15.0
72.338758953 20.0
72.343682809 16.0
72.348606665 18.0
72.353530521 17.0
72.358454377 18.0
72.363378233 19.0
72.368302089 16.0
72.373225945 13.0
72.378149801 19.0
72.383073657 12.0
72.387997513 22.0
72.392921369 17.0
72.397845225 15.0
72.402769081 20.0
72.407692937 20.0
72.412616793 22.0
72.417540649 12.0
72.422464505 17.0
72.427388361 30.0
72.432312217 13.0
72.437236073 23.0
72.442159929 19.0
72.447083785 20.0
72.452007641 17.0
72.456931497 13.0
72.461855353 9.0
72.466779209 16.0
72.471703065 22.0
72.476626921 14.0
72.481550777 14.0
72.486474633 13.0
72.491398489 21.0
72.496322345 12.0
72.501246201 14.0
72.506170057 15.0
72.511093913 21.0
72.516017769 19.0
72.520941625 14.0
72.525865481 11.0
72.530789337 23.0
72.535713193 13.0
72.540637049 24.0
72.545560905 25.0
72.550484761 23.0
72.555408617 11.0
72.560332473 20.0
72.565256329 13.0
72.570180185 22.0
72.575104041 14.0
72.580027897 13.0
72.584951753 16.0
72.589875609 23.0
72.594799466 18.0
72.599723322 23.0
72.604647178 15.0
72.609571034 16.0
72.614494890 12.0
72.619418746 13.0
72.624342602 17.0
72.629266458 14.0
72.634190314 13.0
72.639114170 12.0
72.644038026 17.0
72.648961882 18.0
72.653885738 14.0
72.658809594 15.0
72.663733450 21.0
72.668657306 9.0
72.673581162 10.0
72.678505018 19.0
72.683428874 23.0
72.688352730 16.0
72.693276586 18.0
72.698200442 14.0
72.703124298 20.0
72.708048154 8.0
72.712972010 21.0
72.717895866 18.0
72.722819722 15.0
72.727743578 14.0
72.732667434 17.0
72.737591290 17.0
72.742515146 15.0
72.747439002 16.0
72.752362858 17.0
72.757286714 15.0
72.762210570 16.0
72.767134426 18.0
72.772058282 20.0
72.776982138 11.0
72.781905994 24.0
72.786829850 18.0
72.791753706 17.0
72.796677562 16.0
72.801601418 8.0
72.806525274 11.0
72.811449130 14.0
72.816372986 15.0
72.821296842 19.0
72.826220698 25.0
72.831144554 21.0
72.836068410 21.0
72.840992266 13.0
72.845916122 20.0
72.850839978 10.0
72.855763834 29.0
72.860687690 8.0
72.865611546 16.0
72.870535402 14.0
72.875459258 15.0
72.880383114 12.0
72.885306970 15.0
72.890230826 17.0
72.895154682 14.0
72.900078538 22.0
72.905002394 21.0
72.909926250 10.0
72.914850106 15.0
72.919773962 19.0
72.924697818 16.0
72.929621674 18.0
72.934545530 12.0
72.939469386 14.0
72.944393242 15.0
72.949317098 11.0
72.954240954 13.0
72.959164810 17.0
72.964088667 15.0
72.969012523 21.0
72.973936379 18.0
72.978860235 18.0
72.983784091 8.0
72.988707947 15.0
72.993631803 20.0
72.998555659 20.0
73.003479515 15.0
73.008403371 19.0
73.013327227 20.0
73.018251083 9.0
73.023174939 22.0
73.028098795 13.0
73.033022651 8.0
73.037946507 19.0
73.042870363 21.0
73.047794219 22.0
73.052718075 16.0
73.057641931 20.0
73.062565787 18.0
73.067489643 19.0
73.072413499 17.0
73.077337355 19.0
73.082261211 13.0
73.087185067 11.0
73.092108923 15.0
73.097032779 17.0
73.101956635 6.0
73.106880491 25.0
73.111804347 13.0
73.116728203 18.0
73.121652059 16.0
73.126575915 10.0
73.131499771 11.0
73.136423627 12.0
73.141347483 21.0
73.146271339 13.0
73.151195195 15.0
73.156119051 22.0
73.161042907 13.0
73.165966763 15.0
73.170890619 17.0
73.175814475 8.0
73.180738331 14.0
73.185662187 17.0
73.190586043 13.0
73.195509899 15.0
73.200433755 13.0
73.205357611 16.0
73.210281467 17.0
73.215205323 18.0
73.220129179 14.0
73.225053035 15.0
73.229976891 15.0
73.234900747 10.0
73.239824603 19.0
73.244748459 17.0
73.249672315 19.0
73.254596171 18.0
73.259520027 20.0
73.264443883 18.0
73.269367739 19.0
73.274291595 11.0
73.279215451 12.0
73.284139307 21.0
73.289063163 13.0
73.293987019 14.0
73.298910875 14.0
73.303834731 12.0
73.308758587 12.0
73.313682443 17.0
73.318606299 19.0
73.323530155 14.0
73.328454011 11.0
73.333377868 13.0
73.338301724 14.0
73.343225580 15.0
73.348149436 12.0
73.353073292 17.0
73.357997148 18.0
73.362921004 13.0
73.367844860 15.0
73.372768716 13.0
73.377692572 15.0
73.382616428 15.0
73.387540284 15.0
73.392464140 17.0
73.397387996 19.0
73.402311852 11.0
73.407235708 9.0
73.412159564 13.0
73.417083420 13.0
73.422007276 12.0
73.426931132 18.0
73.431854988 9.0
73.436778844 15.0
73.441702700 10.0
73.446626556 16.0
73.451550412 14.0
73.456474268 15.0
73.461398124 16.0
73.466321980 7.0
73.471245836 8.0
73.476169692 17.0
73.481093548 9.0
73.486017404 23.0
73.490941260 10.0
73.495865116 17.0
73.500788972 18.0
73.505712828 21.0
73.510636684 17.0
73.515560540 19.0
73.520484396 14.0
73.525408252 20.0
73.530332108 11.0
73.535255964 16.0
73.540179820 12.0
73.545103676 11.0
73.550027532 19.0
73.554951388 17.0
73.559875244 11.0
73.564799100 9.0
73.569722956 11.0
73.574646812 9.0
73.579570668 18.0
73.584494524 15.0
73.589418380 10.0
73.594342236 16.0
73.599266092 15.0
73.604189948 15.0
73.609113804 5.0
73.614037660 15.0
73.618961516 16.0
73.623885372 16.0
73.628809228 9.0
73.633733084 9.0
73.638656940 12.0
73.643580796 14.0
73.648504652 11.0
73.653428508 12.0
73.658352364 12.0
73.663276220 13.0
73.668200076 16.0
73.673123932 13.0
73.678047788 10.0
73.682971644 17.0
73.687895500 16.0
73.692819356 12.0
73.697743212 16.0
73.702667069 14.0
73.707590925 11.0
73.712514781 21.0
73.717438637 14.0
73.722362493 11.0
73.727286349 19.0
73.732210205 15.0
73.737134061 12.0
73.742057917 21.0
73.746981773 9.0
73.751905629 11.0
73.756829485 18.0
73.761753341 10.0
73.766677197 15.0
73.771601053 14.0
73.776524909 12.0
73.781448765 11.0
73.786372621 11.0
73.791296477 11.0
73.796220333 7.0
73.801144189 17.0
73.806068045 12.0
73.810991901 14.0
73.815915757 11.0
73.820839613 8.0
73.825763469 16.0
73.830687325 21.0
73.835611181 17.0
73.840535037 7.0
73.845458893 14.0
73.850382749 14.0
73.855306605 12.0
73.860230461 14.0
73.865154317 17.0
73.870078173 7.0
73.875002029 20.0
73.879925885 12.0
73.884849741 14.0
73.889773597 12.0
73.894697453 5.0
73.899621309 10.0
73.904545165 11.0
73.909469021 17.0
73.914392877 10.0
73.919316733 12.0
73.924240589 11.0
73.929164445 16.0
73.934088301 13.0
73.939012157 4.0
73.943936013 9.0
73.948859869 12.0
73.953783725 20.0
73.958707581 12.0
73.963631437 12.0
73.968555293 13.0
73.973479149 14.0
73.978403005 12.0
73.983326861 16.0
73.988250717 14.0
73.993174573 15.0
73.998098429 17.0
74.003022285 12.0
74.007946141 9.0
74.012869997 14.0
74.017793853 12.0
74.022717709 10.0
74.027641565 13.0
74.032565421 16.0
74.037489277 11.0
74.042413133 12.0
74.047336989 14.0
74.052260845 8.0
74.057184701 11.0
74.062108557 18.0
74.067032413 15.0
74.071956270 16.0
74.076880126 17.0
74.081803982 15.0
74.086727838 7.0
74.091651694 13.0
74.096575550 11.0
74.101499406 12.0
74.106423262 10.0
74.111347118 13.0
74.116270974 13.0
74.121194830 15.0
74.126118686 5.0
74.131042542 20.0
74.135966398 20.0
74.140890254 12.0
74.145814110 18.0
74.150737966 13.0
74.155661822 17.0
74.160585678 14.0
74.165509534 15.0
74.170433390 14.0
74.175357246 15.0
74.180281102 21.0
74.185204958 9.0
74.190128814 18.0
74.195052670 15.0
74.199976526 17.0
74.204900382 20.0
74.209824238 13.0
74.214748094 14.0
74.219671950 12.0
74.224595806 6.0
74.229519662 23.0
74.234443518 7.0
74.239367374 12.0
74.244291230 16.0
74.249215086 7.0
74.254138942 12.0
74.259062798 12.0
74.263986654 8.0
74.268910510 12.0
74.273834366 16.0
74.278758222 15.0
74.283682078 4.0
74.288605934 16.0
74.293529790 12.0
74.298453646 9.0
74.303377502 16.0
74.308301358 14.0
74.313225214 18.0
74.318149070 11.0
74.323072926 14.0
74.327996782 11.0
74.332920638 9.0
74.337844494 11.0
74.342768350 17.0
74.347692206 9.0
74.352616062 16.0
74.357539918 16.0
74.362463774 14.0
74.367387630 18.0
74.372311486 11.0
74.377235342 10.0
74.382159198 14.0
74.387083054 15.0
74.392006910 11.0
74.396930766 20.0
74.401854622 16.0
74.406778478 12.0
74.411702334 9.0
74.416626190 7.0
74.421550046 11.0
74.426473902 8.0
74.431397758 10.0
74.436321614 12.0
74.441245470 13.0
74.446169327 9.0
74.451093183 15.0
74.456017039 11.0
74.460940895 11.0
74.465864751 12.0
74.470788607 19.0
74.475712463 12.0
74.480636319 15.0
74.485560175 13.0
74.490484031 9.0
74.495407887 12.0
74.500331743 6.0
74.505255599 11.0
74.510179455 9.0
74.515103311 7.0
74.520027167 19.0
74.524951023 21.0
74.529874879 13.0
74.534798735 12.0
74.539722591 8.0
74.544646447 19.0
74.549570303 14.0
74.554494159 16.0
74.559418015 14.0
74.564341871 15.0
74.569265727 16.0
74.574189583 15.0
74.579113439 8.0
74.584037295 14.0
74.588961151 10.0
74.593885007 18.0
74.598808863 15.0
74.603732719 13.0
74.608656575 8.0
74.613580431 16.0
74.618504287 14.0
74.623428143 18.0
74.628351999 16.0
74.633275855 15.0
74.638199711 8.0
74.643123567 9.0
74.648047423 11.0
74.652971279 11.0
74.657895135 7.0
74.662818991 15.0
74.667742847 8.0
74.672666703 6.0
74.677590559 9.0
74.682514415 13.0
74.687438271 13.0
74.692362127 15.0
74.697285983 14.0
74.702209839 13.0
74.707133695 15.0
74.712057551 8.0
74.716981407 13.0
74.721905263 11.0
74.726829119 11.0
74.731752975 12.0
74.736676831 16.0
74.741600687 11.0
74.746524543 12.0
74.751448399 14.0
74.756372255 10.0
74.761296111 17.0
74.766219967 12.0
74.771143823 9.0
74.776067679 13.0
74.780991535 5.0
74.785915391 14.0
74.790839247 11.0
74.795763103 10.0
74.800686959 12.0
74.805610815 7.0
74.810534671 14.0
74.815458528 8.0
74.820382384 8.0
74.825306240 25.0
74.830230096 14.0
74.835153952 14.0
74.840077808 8.0
74.845001664 17.0
74.849925520 15.0
74.854849376 16.0
74.859773232 9.0
74.864697088 16.0
74.869620944 13.0
74.874544800 21.0
74.879468656 17.0
74.884392512 10.0
74.889316368 14.0
74.894240224 10.0
74.899164080 17.0
74.904087936 7.0
74.909011792 17.0
74.913935648 11.0
74.918859504 21.0
74.923783360 15.0
74.928707216 13.0
74.933631072 8.0
74.938554928 10.0
74.943478784 15.0
74.948402640 11.0
74.953326496 8.0
74.958250352 14.0
74.963174208 14.0
74.968098064 17.0
74.973021920 7.0
74.977945776 14.0
74.982869632 14.0
74.987793488 13.0
74.992717344 15.0
74.997641200 13.0
