30.002461930 86.0
30.007385786 98.0
30.012309642 88.0
30.017233498 93.0
30.022157354 72.0
30.027081210 84.0
30.032005066 73.0
30.036928922 78.0
30.041852778 97.0
30.046776634 90.0
30.051700490 69.0
30.056624346 93.0
30.061548202 76.0
30.066472058 88.0
30.071395914 103.0
30.076319770 87.0
30.081243626 95.0
30.086167482 81.0
30.091091338 99.0
30.096015194 98.0
30.100939050 96.0
30.105862906 89.0
30.110786762 80.0
30.115710618 97.0
30.120634474 81.0
30.125558330 72.0
30.130482186 81.0
30.135406042 97.0
30.140329898 99.0
30.145253754 83.0
30.150177610 98.0
30.155101466 102.0
30.160025322 90.0
30.164949178 91.0
30.169873034 102.0
30.174796890 102.0
30.179720746 93.0
30.184644602 102.0
30.189568458 95.0
30.194492314 81.0
30.199416170 79.0
30.204340026 92.0
30.209263882 79.0
30.214187738 67.0
30.219111594 96.0
30.224035450 92.0
30.228959306 82.0
30.233883162 90.0
30.238807018 97.0
30.243730874 88.0
30.248654730 84.0
30.253578587 83.0
30.258502443 94.0
30.263426299 103.0
30.268350155 82.0
30.273274011 90.0
30.278197867 91.0
30.283121723 84.0
30.288045579 92.0
30.292969435 89.0
30.297893291 95.0
30.302817147 88.0
30.307741003 87.0
30.312664859 102.0
30.317588715 80.0
30.322512571 102.0
30.327436427 80.0
30.332360283 97.0
30.337284139 89.0
30.342207995 92.0
30.347131851 96.0
30.352055707 98.0
30.356979563 74.0
30.361903419 87.0
30.366827275 85.0
30.371751131 87.0
30.376674987 70.0
30.381598843 90.0
30.386522699 80.0
30.391446555 80.0
30.396370411 97.0
30.401294267 86.0
30.406218123 107.0
30.411141979 89.0
30.416065835 81.0
30.420989691 89.0
30.425913547 102.0
30.430837403 101.0
30.435761259 72.0
30.440685115 87.0
30.445608971 70.0
30.450532827 93.0
30.455456683 90.0
30.460380539 80.0
30.465304395 92.0
30.470228251 83.0
30.475152107 88.0
30.480075963 78.0
30.484999819 96.0
30.489923675 93.0
30.494847531 93.0
30.499771387 90.0
30.504695243 87.0
30.509619099 95.0
30.514542955 88.0
30.519466811 86.0
30.524390667 91.0
30.529314523 88.0
30.534238379 94.0
30.539162235 102.0
30.544086091 93.0
30.549009947 83.0
30.553933803 90.0
30.558857659 91.0
30.563781515 82.0
30.568705371 84.0
30.573629227 84.0
30.578553083 87.0
30.583476939 99.0
30.588400795 98.0
30.593324651 82.0
30.598248507 85.0
30.603172363 97.0
30.608096219 85.0
30.613020075 83.0
30.617943931 96.0
30.622867787 81.0
30.627791643 108.0
30.632715499 97.0
30.637639355 110.0
30.642563211 98.0
30.647487067 74.0
30.652410923 80.0
30.657334779 100.0
30.662258635 95.0
30.667182491 97.0
30.672106347 82.0
30.677030203 87.0
30.681954059 113.0
30.686877915 108.0
30.691801771 102.0
30.696725627 81.0
30.701649483 63.0
30.706573339 105.0
30.711497195 90.0
30.716421051 84.0
30.721344907 73.0
30.726268763 89.0
30.731192619 78.0
30.736116475 88.0
30.741040331 95.0
30.745964187 84.0
30.750888043 94.0
30.755811900 93.0
30.760735756 76.0
30.765659612 89.0
30.770583468 92.0
30.775507324 91.0
30.780431180 89.0
30.785355036 87.0
30.790278892 76.0
30.795202748 89.0
30.800126604 86.0
30.805050460 87.0
30.809974316 91.0
30.814898172 85.0
30.819822028 83.0
30.824745884 75.0
30.829669740 78.0
30.834593596 82.0
30.839517452 82.0
30.844441308 99.0
30.849365164 93.0
30.854289020 89.0
30.859212876 91.0
30.864136732 99.0
30.869060588 78.0
30.873984444 86.0
30.878908300 88.0
30.883832156 102.0
30.888756012 94.0
30.893679868 94.0
30.898603724 79.0
30.903527580 91.0
30.908451436 78.0
30.913375292 87.0
30.918299148 96.0
30.923223004 79.0
30.928146860 76.0
30.933070716 96.0
30.937994572 87.0
30.942918428 82.0
30.947842284 94.0
30.952766140 88.0
30.957689996 81.0
30.962613852 95.0
30.967537708 86.0
30.972461564 104.0
30.977385420 79.0
30.982309276 79.0
30.987233132 84.0
30.992156988 96.0
30.997080844 105.0
31.002004700 71.0
31.006928556 98.0
31.011852412 90.0
31.016776268 85.0
31.021700124 84.0
31.026623980 78.0
31.031547836 92.0
31.036471692 76.0
31.041395548 89.0
31.046319404 87.0
31.051243260 91.0
31.056167116 89.0
31.061090972 90.0
31.066014828 75.0
31.070938684 94.0
31.075862540 106.0
31.080786396 79.0
31.085710252 86.0
31.090634108 80.0
31.095557964 82.0
31.100481820 94.0
31.105405676 79.0
31.110329532 75.0
31.115253388 93.0
31.120177244 97.0
31.125101100 98.0
31.130024956 110.0
31.134948812 92.0
31.139872668 80.0
31.144796524 91.0
31.149720380 82.0
31.154644236 84.0
31.159568092 90.0
31.164491948 91.0
31.169415804 97.0
31.174339660 109.0
31.179263516 83.0
31.184187372 74.0
31.189111228 100.0
31.194035084 75.0
31.198958940 75.0
31.203882796 80.0
31.208806652 67.0
31.213730508 93.0
31.218654364 86.0
31.223578220 83.0
31.228502076 101.0
31.233425932 89.0
31.238349788 82.0
31.243273644 83.0
31.248197500 93.0
31.253121357 104.0
31.258045213 76.0
31.262969069 100.0
31.267892925 82.0
31.272816781 91.0
31.277740637 92.0
31.282664493 94.0
31.287588349 82.0
31.292512205 90.0
31.297436061 78.0
31.302359917 95.0
31.307283773 98.0
31.312207629 81.0
31.317131485 97.0
31.322055341 84.0
31.326979197 100.0
31.331903053 84.0
31.336826909 67.0
31.341750765 101.0
31.346674621 71.0
31.351598477 91.0
31.356522333 103.0
31.361446189 77.0
31.366370045 88.0
31.371293901 96.0
31.376217757 100.0
31.381141613 64.0
31.386065469 67.0
31.390989325 95.0
31.395913181 81.0
31.400837037 79.0
31.405760893 91.0
31.410684749 85.0
31.415608605 89.0
31.420532461 99.0
31.425456317 81.0
31.430380173 73.0
31.435304029 73.0
31.440227885 82.0
31.445151741 82.0
31.450075597 92.0
31.454999453 87.0
31.459923309 88.0
31.464847165 110.0
31.469771021 106.0
31.474694877 98.0
31.479618733 98.0
31.484542589 78.0
31.489466445 90.0
31.494390301 90.0
31.499314157 105.0
31.504238013 87.0
31.509161869 93.0
31.514085725 92.0
31.519009581 101.0
31.523933437 100.0
31.528857293 83.0
31.533781149 61.0
31.538705005 94.0
31.543628861 98.0
31.548552717 89.0
31.553476573 82.0
31.558400429 84.0
31.563324285 84.0
31.568248141 91.0
31.573171997 67.0
31.578095853 99.0
31.583019709 87.0
31.587943565 102.0
31.592867421 98.0
31.597791277 102.0
31.602715133 89.0
31.607638989 90.0
31.612562845 90.0
31.617486701 80.0
31.622410557 85.0
31.627334413 95.0
31.632258269 78.0
31.637182125 93.0
31.642105981 89.0
31.647029837 100.0
31.651953693 86.0
31.656877549 90.0
31.661801405 86.0
31.666725261 98.0
31.671649117 116.0
31.676572973 99.0
31.681496829 88.0
31.686420685 112.0
31.691344541 78.0
31.696268397 88.0
31.701192253 74.0
31.706116109 102.0
31.711039965 99.0
31.715963821 81.0
31.720887677 82.0
31.725811533 103.0
31.730735389 67.0
31.735659245 84.0
31.740583101 94.0
31.745506957 86.0
31.750430813 107.0
31.755354670 105.0
31.760278526 80.0
31.765202382 83.0
31.770126238 79.0
31.775050094 98.0
31.779973950 84.0
31.784897806 85.0
31.789821662 77.0
31.794745518 78.0
31.799669374 93.0
31.804593230 84.0
31.809517086 84.0
31.814440942 67.0
31.819364798 89.0
31.824288654 92.0
31.829212510 88.0
31.834136366 93.0
31.839060222 91.0
31.843984078 92.0
31.848907934 91.0
31.853831790 85.0
31.858755646 89.0
31.863679502 79.0
31.868603358 107.0
31.873527214 96.0
31.878451070 82.0
31.883374926 86.0
31.888298782 94.0
31.893222638 96.0
31.898146494 92.0
31.903070350 85.0
31.907994206 87.0
31.912918062 107.0
31.917841918 107.0
31.922765774 87.0
31.927689630 83.0
31.932613486 83.0
31.937537342 86.0
31.942461198 90.0
31.947385054 98.0
31.952308910 93.0
31.957232766 92.0
31.962156622 105.0
31.967080478 97.0
31.972004334 92.0
31.976928190 80.0
31.981852046 100.0
31.986775902 96.0
31.991699758 88.0
31.996623614 110.0
32.001547470 106.0
32.006471326 92.0
32.011395182 107.0
32.016319038 94.0
32.021242894 91.0
32.026166750 92.0
32.031090606 85.0
32.036014462 87.0
32.040938318 82.0
32.045862174 84.0
32.050786030 88.0
32.055709886 88.0
32.060633742 90.0
32.065557598 86.0
32.070481454 107.0
32.075405310 94.0
32.080329166 83.0
32.085253022 108.0
32.090176878 90.0
32.095100734 84.0
32.100024590 100.0
32.104948446 91.0
32.109872302 111.0
32.114796158 79.0
32.119720014 81.0
32.124643870 95.0
32.129567726 85.0
32.134491582 110.0
32.139415438 102.0
32.144339294 83.0
32.149263150 115.0
32.154187006 113.0
32.159110862 75.0
32.164034718 79.0
32.168958574 108.0
32.173882430 83.0
32.178806286 84.0
32.183730142 76.0
32.188653998 94.0
32.193577854 71.0
32.198501710 84.0
32.203425566 93.0
32.208349422 83.0
32.213273278 98.0
32.218197134 87.0
32.223120990 97.0
32.228044846 79.0
32.232968702 87.0
32.237892558 84.0
32.242816414 101.0
32.247740270 98.0
32.252664127 91.0
32.257587983 84.0
32.262511839 100.0
32.267435695 96.0
32.272359551 91.0
32.277283407 91.0
32.282207263 91.0
32.287131119 91.0
32.292054975 85.0
32.296978831 107.0
32.301902687 84.0
32.306826543 96.0
32.311750399 104.0
32.316674255 92.0
32.321598111 103.0
32.326521967 65.0
32.331445823 93.0
32.336369679 72.0
32.341293535 102.0
32.346217391 89.0
32.351141247 93.0
32.356065103 96.0
32.360988959 80.0
32.365912815 107.0
32.370836671 63.0
32.375760527 96.0
32.380684383 102.0
32.385608239 88.0
32.390532095 87.0
32.395455951 98.0
32.400379807 103.0
32.405303663 117.0
32.410227519 107.0
32.415151375 101.0
32.420075231 97.0
32.424999087 113.0
32.429922943 116.0
32.434846799 108.0
32.439770655 110.0
32.444694511 115.0
32.449618367 99.0
32.454542223 115.0
32.459466079 108.0
32.464389935 110.0
32.469313791 108.0
32.474237647 103.0
32.479161503 109.0
32.484085359 128.0
32.489009215 104.0
32.493933071 113.0
32.498856927 117.0
32.503780783 107.0
32.508704639 107.0
32.513628495 139.0
32.518552351 134.0
32.523476207 116.0
32.528400063 101.0
32.533323919 107.0
32.538247775 114.0
32.543171631 110.0
32.548095487 127.0
32.553019343 136.0
32.557943199 111.0
32.562867055 116.0
32.567790911 114.0
32.572714767 118.0
32.577638623 107.0
32.582562479 100.0
32.587486335 90.0
32.592410191 97.0
32.597334047 119.0
32.602257903 118.0
32.607181759 117.0
32.612105615 109.0
32.617029471 98.0
32.621953327 99.0
32.626877183 106.0
32.631801039 112.0
32.636724895 104.0
32.641648751 88.0
32.646572607 88.0
32.651496463 115.0
32.656420319 102.0
32.661344175 84.0
32.666268031 84.0
32.671191887 92.0
32.676115743 95.0
32.681039599 111.0
32.685963455 88.0
32.690887311 113.0
32.695811167 78.0
32.700735023 77.0
32.705658879 97.0
32.710582735 103.0
32.715506591 97.0
32.720430447 87.0
32.725354303 114.0
32.730278159 101.0
32.735202015 90.0
32.740125871 101.0
32.745049727 76.0
32.749973583 82.0
32.754897440 83.0
32.759821296 80.0
32.764745152 98.0
32.769669008 82.0
32.774592864 87.0
32.779516720 89.0
32.784440576 91.0
32.789364432 102.0
32.794288288 90.0
32.799212144 84.0
32.804136000 76.0
32.809059856 64.0
32.813983712 94.0
32.818907568 85.0
32.823831424 84.0
32.828755280 92.0
32.833679136 71.0
32.838602992 88.0
32.843526848 86.0
32.848450704 90.0
32.853374560 107.0
32.858298416 96.0
32.863222272 79.0
32.868146128 76.0
32.873069984 80.0
32.877993840 94.0
32.882917696 89.0
32.887841552 79.0
32.892765408 85.0
32.897689264 101.0
32.902613120 84.0
32.907536976 80.0
32.912460832 105.0
32.917384688 82.0
32.922308544 82.0
32.927232400 93.0
32.932156256 74.0
32.937080112 90.0
32.942003968 74.0
32.946927824 97.0
32.951851680 86.0
32.956775536 96.0
32.961699392 87.0
32.966623248 90.0
32.971547104 95.0
32.976470960 84.0
32.981394816 107.0
32.986318672 85.0
32.991242528 78.0
32.996166384 90.0
33.001090240 86.0
33.006014096 108.0
33.010937952 75.0
33.015861808 79.0
33.020785664 77.0
33.025709520 84.0
33.030633376 101.0
33.035557232 92.0
33.040481088 96.0
33.045404944 95.0
33.050328800 104.0
33.055252656 106.0
33.060176512 106.0
33.065100368 88.0
33.070024224 82.0
33.074948080 116.0
33.079871936 80.0
33.084795792 94.0
33.089719648 91.0
33.094643504 78.0
33.099567360 91.0
33.104491216 100.0
33.109415072 92.0
33.114338928 81.0
33.119262784 87.0
33.124186640 90.0
33.129110496 87.0
33.134034352 92.0
33.138958208 81.0
33.143882064 101.0
33.148805920 82.0
33.153729776 98.0
33.158653632 77.0
33.163577488 87.0
33.168501344 82.0
33.173425200 109.0
33.178349056 84.0
33.183272912 89.0
33.188196768 93.0
33.193120624 99.0
33.198044480 93.0
33.202968336 75.0
33.207892192 86.0
33.212816048 91.0
33.217739904 102.0
33.222663760 100.0
33.227587616 101.0
33.232511472 99.0
33.237435328 106.0
33.242359184 95.0
33.247283040 93.0
33.252206897 96.0
33.257130753 102.0
33.262054609 95.0
33.266978465 72.0
33.271902321 95.0
33.276826177 126.0
33.281750033 99.0
33.286673889 84.0
33.291597745 87.0
33.296521601 100.0
33.301445457 91.0
33.306369313 78.0
33.311293169 89.0
33.316217025 94.0
33.321140881 87.0
33.326064737 89.0
33.330988593 104.0
33.335912449 98.0
33.340836305 89.0
33.345760161 95.0
33.350684017 86.0
33.355607873 76.0
33.360531729 93.0
33.365455585 112.0
33.370379441 101.0
33.375303297 105.0
33.380227153 98.0
33.385151009 86.0
33.390074865 90.0
33.394998721 100.0
33.399922577 76.0
33.404846433 96.0
33.409770289 86.0
33.414694145 108.0
33.419618001 91.0
33.424541857 84.0
33.429465713 89.0
33.434389569 82.0
33.439313425 96.0
33.444237281 81.0
33.449161137 95.0
33.454084993 90.0
33.459008849 92.0
33.463932705 100.0
33.468856561 94.0
33.473780417 97.0
33.478704273 99.0
33.483628129 85.0
33.488551985 114.0
33.493475841 94.0
33.498399697 93.0
33.503323553 81.0
33.508247409 89.0
33.513171265 90.0
33.518095121 97.0
33.523018977 101.0
33.527942833 86.0
33.532866689 96.0
33.537790545 93.0
33.542714401 76.0
33.547638257 107.0
33.552562113 95.0
33.557485969 90.0
33.562409825 106.0
33.567333681 82.0
33.572257537 87.0
33.577181393 118.0
33.582105249 89.0
33.587029105 90.0
33.591952961 108.0
33.596876817 96.0
33.601800673 101.0
33.606724529 101.0
33.611648385 101.0
33.616572241 123.0
33.621496097 105.0
33.626419953 100.0
33.631343809 103.0
33.636267665 109.0
33.641191521 104.0
33.646115377 118.0
33.651039233 103.0
33.655963089 100.0
33.660886945 111.0
33.665810801 113.0
33.670734657 100.0
33.675658513 99.0
33.680582369 95.0
33.685506225 104.0
33.690430081 97.0
33.695353937 89.0
33.700277793 95.0
33.705201649 102.0
33.710125505 106.0
33.715049361 88.0
33.719973217 103.0
33.724897073 109.0
33.729820929 119.0
33.734744785 100.0
33.739668641 104.0
33.744592497 94.0
33.749516353 100.0
33.754440210 126.0
33.759364066 111.0
33.764287922 115.0
33.769211778 88.0
33.774135634 94.0
33.779059490 114.0
33.783983346 87.0
33.788907202 116.0
33.793831058 109.0
33.798754914 105.0
33.803678770 116.0
33.808602626 105.0
33.813526482 106.0
33.818450338 121.0
33.823374194 98.0
33.828298050 128.0
33.833221906 145.0
33.838145762 134.0
33.843069618 145.0
33.847993474 159.0
33.852917330 194.0
33.857841186 208.0
33.862765042 315.0
33.867688898 390.0
33.872612754 512.0
33.877536610 659.0
33.882460466 800.0
33.887384322 1089.0
33.892308178 1185.0
33.897232034 1218.0
33.902155890 1416.0
33.907079746 1405.0
33.912003602 1348.0
33.916927458 1361.0
33.921851314 1247.0
33.926775170 1070.0
33.931699026 971.0
33.936622882 807.0
33.941546738 655.0
33.946470594 568.0
33.951394450 434.0
33.956318306 360.0
33.961242162 326.0
33.966166018 297.0
33.971089874 226.0
33.976013730 187.0
33.980937586 178.0
33.985861442 168.0
33.990785298 153.0
33.995709154 149.0
34.000633010 140.0
34.005556866 148.0
34.010480722 142.0
34.015404578 153.0
34.020328434 132.0
34.025252290 135.0
34.030176146 139.0
34.035100002 127.0
34.040023858 123.0
34.044947714 153.0
34.049871570 122.0
34.054795426 127.0
34.059719282 107.0
34.064643138 125.0
34.069566994 140.0
34.074490850 126.0
34.079414706 119.0
34.084338562 129.0
34.089262418 114.0
34.094186274 111.0
34.099110130 97.0
34.104033986 117.0
34.108957842 103.0
34.113881698 131.0
34.118805554 86.0
34.123729410 95.0
34.128653266 100.0
34.133577122 127.0
34.138500978 127.0
34.143424834 115.0
34.148348690 134.0
34.153272546 103.0
34.158196402 101.0
34.163120258 103.0
34.168044114 104.0
34.172967970 101.0
34.177891826 116.0
34.182815682 100.0
34.187739538 108.0
34.192663394 115.0
34.197587250 106.0
34.202511106 109.0
34.207434962 103.0
34.212358818 107.0
34.217282674 107.0
34.222206530 112.0
34.227130386 111.0
34.232054242 108.0
34.236978098 109.0
34.241901954 116.0
34.246825810 115.0
34.251749667 118.0
34.256673523 87.0
34.261597379 106.0
34.266521235 96.0
34.271445091 112.0
34.276368947 94.0
34.281292803 127.0
34.286216659 119.0
34.291140515 107.0
34.296064371 100.0
34.300988227 107.0
34.305912083 106.0
34.310835939 128.0
34.315759795 113.0
34.320683651 87.0
34.325607507 112.0
34.330531363 115.0
34.335455219 111.0
34.340379075 122.0
34.345302931 100.0
34.350226787 103.0
34.355150643 105.0
34.360074499 124.0
34.364998355 102.0
34.369922211 104.0
34.374846067 119.0
34.379769923 119.0
34.384693779 124.0
34.389617635 93.0
34.394541491 111.0
34.399465347 124.0
34.404389203 123.0
34.409313059 107.0
34.414236915 131.0
34.419160771 121.0
34.424084627 114.0
34.429008483 101.0
34.433932339 114.0
34.438856195 121.0
34.443780051 106.0
34.448703907 118.0
34.453627763 113.0
34.458551619 134.0
34.463475475 95.0
34.468399331 116.0
34.473323187 115.0
34.478247043 91.0
34.483170899 98.0
34.488094755 81.0
34.493018611 121.0
34.497942467 99.0
34.502866323 111.0
34.507790179 109.0
34.512714035 120.0
34.517637891 96.0
34.522561747 116.0
34.527485603 89.0
34.532409459 123.0
34.537333315 120.0
34.542257171 119.0
34.547181027 105.0
34.552104883 105.0
34.557028739 103.0
34.561952595 119.0
34.566876451 105.0
34.571800307 104.0
34.576724163 108.0
34.581648019 101.0
34.586571875 102.0
34.591495731 103.0
34.596419587 99.0
34.601343443 119.0
34.606267299 117.0
34.611191155 118.0
34.616115011 95.0
34.621038867 116.0
34.625962723 100.0
34.630886579 115.0
34.635810435 112.0
34.640734291 103.0
34.645658147 115.0
34.650582003 114.0
34.655505859 92.0
34.660429715 92.0
34.665353571 107.0
34.670277427 113.0
34.675201283 96.0
34.680125139 118.0
34.685048995 111.0
34.689972851 113.0
34.694896707 110.0
34.699820563 94.0
34.704744419 130.0
34.709668275 124.0
34.714592131 109.0
34.719515987 124.0
34.724439843 102.0
34.729363699 98.0
34.734287555 111.0
34.739211411 122.0
34.744135267 116.0
34.749059123 94.0
34.753982980 117.0
34.758906836 106.0
34.763830692 135.0
34.768754548 112.0
34.773678404 112.0
34.778602260 111.0
34.783526116 106.0
34.788449972 119.0
34.793373828 131.0
34.798297684 128.0
34.803221540 121.0
34.808145396 122.0
34.813069252 120.0
34.817993108 134.0
34.822916964 119.0
34.827840820 124.0
34.832764676 114.0
34.837688532 133.0
34.842612388 101.0
34.847536244 117.0
34.852460100 117.0
34.857383956 128.0
34.862307812 111.0
34.867231668 123.0
34.872155524 107.0
34.877079380 120.0
34.882003236 128.0
34.886927092 119.0
34.891850948 109.0
34.896774804 108.0
34.901698660 126.0
34.906622516 121.0
34.911546372 115.0
34.916470228 118.0
34.921394084 127.0
34.926317940 133.0
34.931241796 129.0
34.936165652 143.0
34.941089508 129.0
34.946013364 107.0
34.950937220 126.0
34.955861076 104.0
34.960784932 118.0
34.965708788 113.0
34.970632644 126.0
34.975556500 137.0
34.980480356 124.0
34.985404212 122.0
34.990328068 118.0
34.995251924 100.0
35.000175780 116.0
35.005099636 126.0
35.010023492 139.0
35.014947348 125.0
35.019871204 127.0
35.024795060 101.0
35.029718916 130.0
35.034642772 147.0
35.039566628 121.0
35.044490484 125.0
35.049414340 135.0
35.054338196 117.0
35.059262052 110.0
35.064185908 129.0
35.069109764 143.0
35.074033620 133.0
35.078957476 134.0
35.083881332 134.0
35.088805188 143.0
35.093729044 123.0
35.098652900 119.0
35.103576756 123.0
35.108500612 110.0
35.113424468 135.0
35.118348324 148.0
35.123272180 134.0
35.128196036 122.0
35.133119892 145.0
35.138043748 136.0
35.142967604 132.0
35.147891460 110.0
35.152815316 129.0
35.157739172 126.0
35.162663028 123.0
35.167586884 142.0
35.172510740 136.0
35.177434596 127.0
35.182358452 119.0
35.187282308 138.0
35.192206164 123.0
35.197130020 139.0
35.202053876 127.0
35.206977732 130.0
35.211901588 148.0
35.216825444 132.0
35.221749300 123.0
35.226673156 138.0
35.231597012 140.0
35.236520868 143.0
35.241444724 132.0
35.246368580 144.0
35.251292437 156.0
35.256216293 153.0
35.261140149 121.0
35.266064005 151.0
35.270987861 130.0
35.275911717 137.0
35.280835573 138.0
35.285759429 142.0
35.290683285 152.0
35.295607141 175.0
35.300530997 143.0
35.305454853 151.0
35.310378709 149.0
35.315302565 159.0
35.320226421 140.0
35.325150277 136.0
35.330074133 139.0
35.334997989 154.0
35.339921845 162.0
35.344845701 141.0
35.349769557 143.0
35.354693413 139.0
35.359617269 143.0
35.364541125 145.0
35.369464981 148.0
35.374388837 162.0
35.379312693 158.0
35.384236549 152.0
35.389160405 148.0
35.394084261 174.0
35.399008117 159.0
35.403931973 175.0
35.408855829 148.0
35.413779685 157.0
35.418703541 174.0
35.423627397 158.0
35.428551253 179.0
35.433475109 166.0
35.438398965 165.0
35.443322821 178.0
35.448246677 147.0
35.453170533 178.0
35.458094389 186.0
35.463018245 177.0
35.467942101 181.0
35.472865957 193.0
35.477789813 191.0
35.482713669 168.0
35.487637525 174.0
35.492561381 184.0
35.497485237 170.0
35.502409093 187.0
35.507332949 187.0
35.512256805 186.0
35.517180661 187.0
35.522104517 193.0
35.527028373 190.0
35.531952229 172.0
35.536876085 165.0
35.541799941 193.0
35.546723797 197.0
35.551647653 160.0
35.556571509 193.0
35.561495365 213.0
35.566419221 183.0
35.571343077 196.0
35.576266933 213.0
35.581190789 214.0
35.586114645 229.0
35.591038501 173.0
35.595962357 221.0
35.600886213 210.0
35.605810069 220.0
35.610733925 239.0
35.615657781 238.0
35.620581637 208.0
35.625505493 202.0
35.630429349 224.0
35.635353205 237.0
35.640277061 259.0
35.645200917 214.0
35.650124773 222.0
35.655048629 240.0
35.659972485 260.0
35.664896341 264.0
35.669820197 277.0
35.674744053 233.0
35.679667909 269.0
35.684591765 268.0
35.689515621 273.0
35.694439477 289.0
35.699363333 294.0
35.704287189 268.0
35.709211045 288.0
35.714134901 278.0
35.719058757 279.0
35.723982613 283.0
35.728906469 335.0
35.733830325 302.0
35.738754181 334.0
35.743678037 320.0
35.748601893 335.0
35.753525750 350.0
35.758449606 328.0
35.763373462 337.0
35.768297318 382.0
35.773221174 413.0
35.778145030 384.0
35.783068886 377.0
35.787992742 420.0
35.792916598 460.0
35.797840454 431.0
35.802764310 452.0
35.807688166 466.0
35.812612022 513.0
35.817535878 484.0
35.822459734 526.0
35.827383590 515.0
35.832307446 537.0
35.837231302 530.0
35.842155158 538.0
35.847079014 527.0
35.852002870 609.0
35.856926726 580.0
35.861850582 658.0
35.866774438 642.0
35.871698294 629.0
35.876622150 629.0
35.881546006 704.0
35.886469862 686.0
35.891393718 686.0
35.896317574 778.0
35.901241430 810.0
35.906165286 912.0
35.911089142 861.0
35.916012998 962.0
35.920936854 999.0
35.925860710 1060.0
35.930784566 1147.0
35.935708422 1217.0
35.940632278 1312.0
35.945556134 1429.0
35.950479990 1498.0
35.955403846 1688.0
35.960327702 1774.0
35.965251558 1989.0
35.970175414 2203.0
35.975099270 2296.0
35.980023126 2502.0
35.984946982 2610.0
35.989870838 2829.0
35.994794694 2968.0
35.999718550 3238.0
36.004642406 3361.0
36.009566262 3549.0
36.014490118 3875.0
36.019413974 3990.0
36.024337830 4329.0
36.029261686 4665.0
36.034185542 4828.0
36.039109398 5040.0
36.044033254 5347.0
36.048957110 5692.0
36.053880966 5872.0
36.058804822 5846.0
36.063728678 6227.0
36.068652534 6444.0
36.073576390 6628.0
36.078500246 6763.0
36.083424102 6871.0
36.088347958 7076.0
36.093271814 7252.0
36.098195670 7328.0
36.103119526 7452.0
36.108043382 7348.0
36.112967238 7626.0
36.117891094 7586.0
36.122814950 7665.0
36.127738806 7654.0
36.132662662 7540.0
36.137586518 7519.0
36.142510374 7361.0
36.147434230 7373.0
36.152358086 7371.0
36.157281942 7152.0
36.162205798 6928.0
36.167129654 6977.0
36.172053510 6772.0
36.176977366 6703.0
36.181901222 6527.0
36.186825078 6226.0
36.191748934 6133.0
36.196672790 5976.0
36.201596646 5855.0
36.206520502 5521.0
36.211444358 5401.0
36.216368214 4975.0
36.221292070 4762.0
36.226215926 4545.0
36.231139782 4333.0
36.236063638 4167.0
36.240987494 3774.0
36.245911350 3715.0
36.250835207 3609.0
36.255759063 3418.0
36.260682919 3231.0
36.265606775 3011.0
36.270530631 2865.0
36.275454487 2639.0
36.280378343 2414.0
36.285302199 2398.0
36.290226055 2170.0
36.295149911 2026.0
36.300073767 2022.0
36.304997623 1927.0
36.309921479 1803.0
36.314845335 1633.0
36.319769191 1543.0
36.324693047 1469.0
36.329616903 1399.0
36.334540759 1224.0
36.339464615 1206.0
36.344388471 1185.0
36.349312327 1063.0
36.354236183 1060.0
36.359160039 953.0
36.364083895 996.0
36.369007751 895.0
36.373931607 875.0
36.378855463 872.0
36.383779319 806.0
36.388703175 729.0
36.393627031 801.0
36.398550887 740.0
36.403474743 721.0
36.408398599 711.0
36.413322455 657.0
36.418246311 638.0
36.423170167 642.0
36.428094023 638.0
36.433017879 558.0
36.437941735 584.0
36.442865591 560.0
36.447789447 597.0
36.452713303 558.0
36.457637159 558.0
36.462561015 566.0
36.467484871 551.0
36.472408727 475.0
36.477332583 542.0
36.482256439 488.0
36.487180295 525.0
36.492104151 462.0
36.497028007 456.0
36.501951863 460.0
36.506875719 455.0
36.511799575 516.0
36.516723431 461.0
36.521647287 468.0
36.526571143 452.0
36.531494999 449.0
36.536418855 457.0
36.541342711 418.0
36.546266567 404.0
36.551190423 444.0
36.556114279 416.0
36.561038135 394.0
36.565961991 404.0
36.570885847 398.0
36.575809703 407.0
36.580733559 359.0
36.585657415 420.0
36.590581271 402.0
36.595505127 387.0
36.600428983 398.0
36.605352839 393.0
36.610276695 373.0
36.615200551 385.0
36.620124407 405.0
36.625048263 409.0
36.629972119 370.0
36.634895975 369.0
36.639819831 388.0
36.644743687 382.0
36.649667543 378.0
36.654591399 376.0
36.659515255 388.0
36.664439111 363.0
36.669362967 369.0
36.674286823 386.0
36.679210679 383.0
36.684134535 421.0
36.689058391 390.0
36.693982247 361.0
36.698906103 376.0
36.703829959 372.0
36.708753815 332.0
36.713677671 368.0
36.718601527 370.0
36.723525383 336.0
36.728449239 357.0
36.733373095 385.0
36.738296951 390.0
36.743220807 358.0
36.748144663 385.0
36.753068520 379.0
36.757992376 398.0
36.762916232 365.0
36.767840088 386.0
36.772763944 387.0
36.777687800 426.0
36.782611656 402.0
36.787535512 370.0
36.792459368 359.0
36.797383224 371.0
36.802307080 402.0
36.807230936 403.0
36.812154792 376.0
36.817078648 351.0
36.822002504 391.0
36.826926360 392.0
36.831850216 408.0
36.836774072 412.0
36.841697928 357.0
36.846621784 417.0
36.851545640 384.0
36.856469496 397.0
36.861393352 357.0
36.866317208 459.0
36.871241064 394.0
36.876164920 426.0
36.881088776 393.0
36.886012632 402.0
36.890936488 433.0
36.895860344 404.0
36.900784200 388.0
36.905708056 407.0
36.910631912 403.0
36.915555768 429.0
36.920479624 395.0
36.925403480 427.0
36.930327336 397.0
36.935251192 433.0
36.940175048 439.0
36.945098904 442.0
36.950022760 439.0
36.954946616 443.0
36.959870472 402.0
36.964794328 457.0
36.969718184 418.0
36.974642040 417.0
36.979565896 442.0
36.984489752 459.0
36.989413608 452.0
36.994337464 439.0
36.999261320 469.0
37.004185176 442.0
37.009109032 439.0
37.014032888 456.0
37.018956744 475.0
37.023880600 442.0
37.028804456 511.0
37.033728312 487.0
37.038652168 462.0
37.043576024 510.0
37.048499880 515.0
37.053423736 497.0
37.058347592 466.0
37.063271448 475.0
37.068195304 489.0
37.073119160 494.0
37.078043016 523.0
37.082966872 511.0
37.087890728 492.0
37.092814584 528.0
37.097738440 437.0
37.102662296 513.0
37.107586152 501.0
37.112510008 514.0
37.117433864 560.0
37.122357720 532.0
37.127281576 567.0
37.132205432 522.0
37.137129288 584.0
37.142053144 557.0
37.146977000 567.0
37.151900856 566.0
37.156824712 566.0
37.161748568 565.0
37.166672424 575.0
37.171596280 608.0
37.176520136 600.0
37.181443992 580.0
37.186367848 598.0
37.191291704 609.0
37.196215560 626.0
37.201139416 641.0
37.206063272 645.0
37.210987128 665.0
37.215910984 644.0
37.220834840 618.0
37.225758696 663.0
37.230682552 642.0
37.235606408 643.0
37.240530264 663.0
37.245454120 692.0
37.250377977 739.0
37.255301833 681.0
37.260225689 773.0
37.265149545 691.0
37.270073401 791.0
37.274997257 823.0
37.279921113 772.0
37.284844969 804.0
37.289768825 756.0
37.294692681 891.0
37.299616537 795.0
37.304540393 824.0
37.309464249 821.0
37.314388105 881.0
37.319311961 823.0
37.324235817 928.0
37.329159673 889.0
37.334083529 889.0
37.339007385 975.0
37.343931241 956.0
37.348855097 975.0
37.353778953 951.0
37.358702809 1025.0
37.363626665 1053.0
37.368550521 1091.0
37.373474377 1053.0
37.378398233 1130.0
37.383322089 1037.0
37.388245945 1127.0
37.393169801 1209.0
37.398093657 1212.0
37.403017513 1223.0
37.407941369 1330.0
37.412865225 1307.0
37.417789081 1344.0
37.422712937 1364.0
37.427636793 1513.0
37.432560649 1494.0
37.437484505 1667.0
37.442408361 1779.0
37.447332217 2031.0
37.452256073 2078.0
37.457179929 2430.0
37.462103785 2640.0
37.467027641 2646.0
37.471951497 3093.0
37.476875353 3176.0
37.481799209 3448.0
37.486723065 3521.0
37.491646921 4023.0
37.496570777 3737.0
37.501494633 4286.0
37.506418489 4160.0
37.511342345 4292.0
37.516266201 4050.0
37.521190057 4177.0
37.526113913 3925.0
37.531037769 4247.0
37.535961625 4024.0
37.540885481 4251.0
37.545809337 4220.0
37.550733193 4481.0
37.555657049 4557.0
37.560580905 4993.0
37.565504761 5132.0
37.570428617 5844.0
37.575352473 6090.0
37.580276329 7009.0
37.585200185 7529.0
37.590124041 9160.0
37.595047897 9908.0
37.599971753 12708.0
37.604895609 14148.0
37.609819465 19114.0
37.614743321 21965.0
37.619667177 33318.0
37.624591033 43244.0
37.629514889 79839.0
37.634438745 117334.0
37.639362601 181198.0
37.644286457 229942.0
37.649210313 258357.0
37.654134169 279924.0
37.659058025 286232.0
37.663981881 296344.0
37.668905737 288523.0
37.673829593 290591.0
37.678753449 266522.0
37.683677305 244911.0
37.688601161 178696.0
37.693525017 124140.0
37.698448873 84092.0
37.703372729 55020.0
37.708296585 44149.0
37.713220441 35554.0
37.718144297 36414.0
37.723068153 40532.0
37.727992009 57157.0
37.732915865 72005.0
37.737839721 108622.0
37.742763577 119383.0
37.747687433 143455.0
37.752611290 144545.0
37.757535146 153913.0
37.762459002 151487.0
37.767382858 152977.0
37.772306714 145842.0
37.777230570 136501.0
37.782154426 119467.0
37.787078282 83940.0
37.792002138 68745.0
37.796925994 37157.0
37.801849850 31165.0
37.806773706 18467.0
37.811697562 16178.0
37.816621418 11534.0
37.821545274 10218.0
37.826469130 8053.0
37.831392986 7520.0
37.836316842 6385.0
37.841240698 6017.0
37.846164554 5325.0
37.851088410 4908.0
37.856012266 4396.0
37.860936122 4226.0
37.865859978 3927.0
37.870783834 3669.0
37.875707690 3508.0
37.880631546 3369.0
37.885555402 3047.0
37.890479258 2987.0
37.895403114 2701.0
37.900326970 2642.0
37.905250826 2480.0
37.910174682 2329.0
37.915098538 2323.0
37.920022394 2296.0
37.924946250 2127.0
37.929870106 2093.0
37.934793962 1927.0
37.939717818 1884.0
37.944641674 1851.0
37.949565530 1725.0
37.954489386 1739.0
37.959413242 1736.0
37.964337098 1684.0
37.969260954 1504.0
37.974184810 1522.0
37.979108666 1544.0
37.984032522 1446.0
37.988956378 1422.0
37.993880234 1381.0
37.998804090 1418.0
38.003727946 1336.0
38.008651802 1320.0
38.013575658 1334.0
38.018499514 1262.0
38.023423370 1285.0
38.028347226 1153.0
38.033271082 1207.0
38.038194938 1166.0
38.043118794 1136.0
38.048042650 1133.0
38.052966506 1123.0
38.057890362 1079.0
38.062814218 1096.0
38.067738074 1064.0
38.072661930 1056.0
38.077585786 1020.0
38.082509642 1043.0
38.087433498 942.0
38.092357354 939.0
38.097281210 903.0
38.102205066 962.0
38.107128922 969.0
38.112052778 938.0
38.116976634 916.0
38.121900490 862.0
38.126824346 901.0
38.131748202 838.0
38.136672058 839.0
38.141595914 818.0
38.146519770 873.0
38.151443626 790.0
38.156367482 818.0
38.161291338 807.0
38.166215194 838.0
38.171139050 797.0
38.176062906 762.0
38.180986762 735.0
38.185910618 751.0
38.190834474 716.0
38.195758330 711.0
38.200682186 690.0
38.205606042 696.0
38.210529898 663.0
38.215453754 693.0
38.220377610 658.0
38.225301466 618.0
38.230225322 623.0
38.235149178 665.0
38.240073034 597.0
38.244996890 606.0
38.249920747 614.0
38.254844603 572.0
38.259768459 623.0
38.264692315 576.0
38.269616171 566.0
38.274540027 589.0
38.279463883 533.0
38.284387739 561.0
38.289311595 499.0
38.294235451 553.0
38.299159307 527.0
38.304083163 528.0
38.309007019 483.0
38.313930875 502.0
38.318854731 531.0
38.323778587 494.0
38.328702443 499.0
38.333626299 485.0
38.338550155 493.0
38.343474011 448.0
38.348397867 471.0
38.353321723 417.0
38.358245579 462.0
38.363169435 432.0
38.368093291 434.0
38.373017147 438.0
38.377941003 427.0
38.382864859 419.0
38.387788715 422.0
38.392712571 388.0
38.397636427 397.0
38.402560283 370.0
38.407484139 383.0
38.412407995 401.0
38.417331851 389.0
38.422255707 394.0
38.427179563 368.0
38.432103419 401.0
38.437027275 369.0
38.441951131 378.0
38.446874987 353.0
38.451798843 364.0
38.456722699 358.0
38.461646555 382.0
38.466570411 369.0
38.471494267 347.0
38.476418123 340.0
38.481341979 328.0
38.486265835 316.0
38.491189691 345.0
38.496113547 327.0
38.501037403 318.0
38.505961259 306.0
38.510885115 306.0
38.515808971 257.0
38.520732827 323.0
38.525656683 310.0
38.530580539 302.0
38.535504395 349.0
38.540428251 283.0
38.545352107 327.0
38.550275963 283.0
38.555199819 289.0
38.560123675 289.0
38.565047531 262.0
38.569971387 262.0
38.574895243 259.0
38.579819099 219.0
38.584742955 225.0
38.589666811 272.0
38.594590667 286.0
38.599514523 215.0
38.604438379 277.0
38.609362235 225.0
38.614286091 266.0
38.619209947 211.0
38.624133803 256.0
38.629057659 196.0
38.633981515 259.0
38.638905371 215.0
38.643829227 227.0
38.648753083 200.0
38.653676939 177.0
38.658600795 211.0
38.663524651 187.0
38.668448507 197.0
38.673372363 167.0
38.678296219 187.0
38.683220075 193.0
38.688143931 204.0
38.693067787 206.0
38.697991643 177.0
38.702915499 192.0
38.707839355 194.0
38.712763211 191.0
38.717687067 188.0
38.722610923 174.0
38.727534779 160.0
38.732458635 177.0
38.737382491 182.0
38.742306347 190.0
38.747230203 171.0
38.752154060 172.0
38.757077916 188.0
38.762001772 197.0
38.766925628 149.0
38.771849484 178.0
38.776773340 166.0
38.781697196 150.0
38.786621052 182.0
38.791544908 170.0
38.796468764 164.0
38.801392620 168.0
38.806316476 143.0
38.811240332 151.0
38.816164188 166.0
38.821088044 154.0
38.826011900 162.0
38.830935756 147.0
38.835859612 134.0
38.840783468 164.0
38.845707324 148.0
38.850631180 152.0
38.855555036 147.0
38.860478892 157.0
38.865402748 140.0
38.870326604 138.0
38.875250460 152.0
38.880174316 161.0
38.885098172 140.0
38.890022028 153.0
38.894945884 151.0
38.899869740 131.0
38.904793596 149.0
38.909717452 146.0
38.914641308 134.0
38.919565164 141.0
38.924489020 142.0
38.929412876 142.0
38.934336732 131.0
38.939260588 127.0
38.944184444 138.0
38.949108300 134.0
38.954032156 138.0
38.958956012 150.0
38.963879868 136.0
38.968803724 149.0
38.973727580 155.0
38.978651436 128.0
38.983575292 138.0
38.988499148 140.0
38.993423004 134.0
38.998346860 126.0
39.003270716 132.0
39.008194572 159.0
39.013118428 136.0
39.018042284 150.0
39.022966140 123.0
39.027889996 108.0
39.032813852 110.0
39.037737708 132.0
39.042661564 114.0
39.047585420 110.0
39.052509276 134.0
39.057433132 143.0
39.062356988 144.0
39.067280844 140.0
39.072204700 139.0
39.077128556 108.0
39.082052412 145.0
39.086976268 122.0
39.091900124 125.0
39.096823980 123.0
39.101747836 127.0
39.106671692 106.0
39.111595548 113.0
39.116519404 122.0
39.121443260 108.0
39.126367116 145.0
39.131290972 117.0
39.136214828 130.0
39.141138684 113.0
39.146062540 124.0
39.150986396 139.0
39.155910252 107.0
39.160834108 117.0
39.165757964 116.0
39.170681820 130.0
39.175605676 122.0
39.180529532 122.0
39.185453388 136.0
39.190377244 128.0
39.195301100 103.0
39.200224956 132.0
39.205148812 118.0
39.210072668 127.0
39.214996524 131.0
39.219920380 125.0
39.224844236 135.0
39.229768092 112.0
39.234691948 128.0
39.239615804 131.0
39.244539660 114.0
39.249463517 117.0
39.254387373 119.0
39.259311229 110.0
39.264235085 108.0
39.269158941 107.0
39.274082797 113.0
39.279006653 113.0
39.283930509 119.0
39.288854365 120.0
39.293778221 120.0
39.298702077 119.0
39.303625933 124.0
39.308549789 125.0
39.313473645 132.0
39.318397501 118.0
39.323321357 109.0
39.328245213 125.0
39.333169069 148.0
39.338092925 109.0
39.343016781 126.0
39.347940637 113.0
39.352864493 106.0
39.357788349 114.0
39.362712205 124.0
39.367636061 116.0
39.372559917 130.0
39.377483773 128.0
39.382407629 121.0
39.387331485 108.0
39.392255341 115.0
39.397179197 115.0
39.402103053 103.0
39.407026909 110.0
39.411950765 131.0
39.416874621 131.0
39.421798477 126.0
39.426722333 99.0
39.431646189 112.0
39.436570045 136.0
39.441493901 125.0
39.446417757 108.0
39.451341613 139.0
39.456265469 100.0
39.461189325 98.0
39.466113181 104.0
39.471037037 119.0
39.475960893 116.0
39.480884749 99.0
39.485808605 117.0
39.490732461 114.0
39.495656317 102.0
39.500580173 133.0
39.505504029 122.0
39.510427885 108.0
39.515351741 112.0
39.520275597 103.0
39.525199453 97.0
39.530123309 106.0
39.535047165 122.0
39.539971021 126.0
39.544894877 105.0
39.549818733 126.0
39.554742589 122.0
39.559666445 125.0
39.564590301 121.0
39.569514157 121.0
39.574438013 108.0
39.579361869 101.0
39.584285725 121.0
39.589209581 110.0
39.594133437 116.0
39.599057293 115.0
39.603981149 108.0
39.608905005 135.0
39.613828861 108.0
39.618752717 103.0
39.623676573 101.0
39.628600429 115.0
39.633524285 120.0
39.638448141 98.0
39.643371997 116.0
39.648295853 94.0
39.653219709 114.0
39.658143565 122.0
39.663067421 107.0
39.667991277 117.0
39.672915133 110.0
39.677838989 114.0
39.682762845 94.0
39.687686701 111.0
39.692610557 120.0
39.697534413 105.0
39.702458269 101.0
39.707382125 107.0
39.712305981 104.0
39.717229837 114.0
39.722153693 115.0
39.727077549 95.0
39.732001405 118.0
39.736925261 90.0
39.741849117 107.0
39.746772973 121.0
39.751696830 99.0
39.756620686 115.0
39.761544542 114.0
39.766468398 100.0
39.771392254 113.0
39.776316110 119.0
39.781239966 105.0
39.786163822 94.0
39.791087678 110.0
39.796011534 103.0
39.800935390 94.0
39.805859246 102.0
39.810783102 108.0
39.815706958 122.0
39.820630814 115.0
39.825554670 110.0
39.830478526 110.0
39.835402382 105.0
39.840326238 120.0
39.845250094 101.0
39.850173950 93.0
39.855097806 117.0
39.860021662 114.0
39.864945518 99.0
39.869869374 114.0
39.874793230 116.0
39.879717086 95.0
39.884640942 122.0
39.889564798 99.0
39.894488654 115.0
39.899412510 110.0
39.904336366 122.0
39.909260222 104.0
39.914184078 97.0
39.919107934 93.0
39.924031790 102.0
39.928955646 93.0
39.933879502 92.0
39.938803358 101.0
39.943727214 110.0
39.948651070 105.0
39.953574926 93.0
39.958498782 97.0
39.963422638 118.0
39.968346494 110.0
39.973270350 116.0
39.978194206 106.0
39.983118062 109.0
39.988041918 89.0
39.992965774 121.0
39.997889630 117.0
