45.002461930 67.0
45.007385786 59.0
45.012309642 60.0
45.017233498 50.0
45.022157354 45.0
45.027081210 62.0
45.032005066 47.0
45.036928922 66.0
45.041852778 42.0
45.046776634 57.0
45.051700490 81.0
45.056624346 62.0
45.061548202 63.0
45.066472058 52.0
45.071395914 62.0
45.076319770 63.0
45.081243626 55.0
45.086167482 45.0
45.091091338 51.0
45.096015194 60.0
45.100939050 55.0
45.105862906 52.0
45.110786762 60.0
45.115710618 56.0
45.120634474 43.0
45.125558330 55.0
45.130482186 51.0
45.135406042 56.0
45.140329898 49.0
45.145253754 59.0
45.150177610 51.0
45.155101466 46.0
45.160025322 70.0
45.164949178 41.0
45.169873034 54.0
45.174796890 62.0
45.179720746 49.0
45.184644602 51.0
45.189568458 66.0
45.194492314 65.0
45.199416170 42.0
45.204340026 46.0
45.209263882 62.0
45.214187738 56.0
45.219111594 49.0
45.224035450 58.0
45.228959306 44.0
45.233883162 54.0
45.238807018 52.0
45.243730874 58.0
45.248654730 52.0
45.253578587 57.0
45.258502443 51.0
45.263426299 58.0
45.268350155 66.0
45.273274011 40.0
45.278197867 55.0
45.283121723 54.0
45.288045579 53.0
45.292969435 35.0
45.297893291 43.0
45.302817147 43.0
45.307741003 66.0
45.312664859 48.0
45.317588715 59.0
45.322512571 41.0
45.327436427 46.0
45.332360283 46.0
45.337284139 38.0
45.342207995 52.0
45.347131851 52.0
45.352055707 56.0
45.356979563 54.0
45.361903419 54.0
45.366827275 54.0
45.371751131 51.0
45.376674987 54.0
45.381598843 47.0
45.386522699 50.0
45.391446555 63.0
45.396370411 63.0
45.401294267 61.0
45.406218123 50.0
45.411141979 52.0
45.416065835 50.0
45.420989691 50.0
45.425913547 53.0
45.430837403 55.0
45.435761259 55.0
45.440685115 61.0
45.445608971 57.0
45.450532827 56.0
45.455456683 60.0
45.460380539 45.0
45.465304395 57.0
45.470228251 66.0
45.475152107 47.0
45.480075963 59.0
45.484999819 52.0
45.489923675 35.0
45.494847531 51.0
45.499771387 61.0
45.504695243 55.0
45.509619099 53.0
45.514542955 42.0
45.519466811 63.0
45.524390667 51.0
45.529314523 50.0
45.534238379 55.0
45.539162235 48.0
45.544086091 52.0
45.549009947 46.0
45.553933803 31.0
45.558857659 53.0
45.563781515 49.0
45.568705371 63.0
45.573629227 60.0
45.578553083 48.0
45.583476939 60.0
45.588400795 53.0
45.593324651 49.0
45.598248507 44.0
45.603172363 49.0
45.608096219 46.0
45.613020075 46.0
45.617943931 44.0
45.622867787 54.0
45.627791643 56.0
45.632715499 51.0
45.637639355 58.0
45.642563211 55.0
45.647487067 50.0
45.652410923 45.0
45.657334779 42.0
45.662258635 49.0
45.667182491 47.0
45.672106347 46.0
45.677030203 54.0
45.681954059 50.0
45.686877915 47.0
45.691801771 54.0
45.696725627 40.0
45.701649483 59.0
45.706573339 55.0
45.711497195 52.0
45.716421051 64.0
45.721344907 53.0
45.726268763 46.0
45.731192619 56.0
45.736116475 51.0
45.741040331 45.0
45.745964187 43.0
45.750888043 42.0
45.755811900 54.0
45.760735756 43.0
45.765659612 45.0
45.770583468 64.0
45.775507324 57.0
45.780431180 42.0
45.785355036 65.0
45.790278892 54.0
45.795202748 54.0
45.800126604 46.0
45.805050460 38.0
45.809974316 37.0
45.814898172 48.0
45.819822028 56.0
45.824745884 60.0
45.829669740 44.0
45.834593596 65.0
45.839517452 55.0
45.844441308 41.0
45.849365164 38.0
45.854289020 51.0
45.859212876 37.0
45.864136732 59.0
45.869060588 51.0
45.873984444 51.0
45.878908300 69.0
45.883832156 42.0
45.888756012 62.0
45.893679868 66.0
45.898603724 45.0
45.903527580 59.0
45.908451436 57.0
45.913375292 49.0
45.918299148 53.0
45.923223004 45.0
45.928146860 52.0
45.933070716 53.0
45.937994572 45.0
45.942918428 50.0
45.947842284 53.0
45.952766140 61.0
45.957689996 44.0
45.962613852 52.0
45.967537708 61.0
45.972461564 55.0
45.977385420 48.0
45.982309276 60.0
45.987233132 44.0
45.992156988 39.0
45.997080844 51.0
46.002004700 62.0
46.006928556 52.0
46.011852412 60.0
46.016776268 42.0
46.021700124 55.0
46.026623980 55.0
46.031547836 45.0
46.036471692 48.0
46.041395548 48.0
46.046319404 54.0
46.051243260 55.0
46.056167116 60.0
46.061090972 46.0
46.066014828 59.0
46.070938684 44.0
46.075862540 51.0
46.080786396 54.0
46.085710252 49.0
46.090634108 66.0
46.095557964 48.0
46.100481820 60.0
46.105405676 59.0
46.110329532 52.0
46.115253388 67.0
46.120177244 59.0
46.125101100 51.0
46.130024956 35.0
46.134948812 36.0
46.139872668 53.0
46.144796524 46.0
46.149720380 77.0
46.154644236 53.0
46.159568092 54.0
46.164491948 51.0
46.169415804 47.0
46.174339660 54.0
46.179263516 52.0
46.184187372 54.0
46.189111228 59.0
46.194035084 47.0
46.198958940 60.0
46.203882796 53.0
46.208806652 61.0
46.213730508 51.0
46.218654364 53.0
46.223578220 47.0
46.228502076 40.0
46.233425932 56.0
46.238349788 55.0
46.243273644 52.0
46.248197500 48.0
46.253121357 58.0
46.258045213 58.0
46.262969069 48.0
46.267892925 55.0
46.272816781 59.0
46.277740637 54.0
46.282664493 43.0
46.287588349 63.0
46.292512205 49.0
46.297436061 38.0
46.302359917 53.0
46.307283773 48.0
46.312207629 48.0
46.317131485 46.0
46.322055341 43.0
46.326979197 56.0
46.331903053 55.0
46.336826909 62.0
46.341750765 47.0
46.346674621 51.0
46.351598477 44.0
46.356522333 48.0
46.361446189 47.0
46.366370045 46.0
46.371293901 40.0
46.376217757 43.0
46.381141613 64.0
46.386065469 48.0
46.390989325 64.0
46.395913181 43.0
46.400837037 43.0
46.405760893 52.0
46.410684749 53.0
46.415608605 53.0
46.420532461 60.0
46.425456317 50.0
46.430380173 55.0
46.435304029 69.0
46.440227885 57.0
46.445151741 50.0
46.450075597 58.0
46.454999453 52.0
46.459923309 46.0
46.464847165 63.0
46.469771021 45.0
46.474694877 45.0
46.479618733 52.0
46.484542589 66.0
46.489466445 48.0
46.494390301 48.0
46.499314157 42.0
46.504238013 43.0
46.509161869 60.0
46.514085725 55.0
46.519009581 50.0
46.523933437 58.0
46.528857293 50.0
46.533781149 61.0
46.538705005 52.0
46.543628861 53.0
46.548552717 56.0
46.553476573 61.0
46.558400429 68.0
46.563324285 60.0
46.568248141 42.0
46.573171997 52.0
46.578095853 60.0
46.583019709 49.0
46.587943565 66.0
46.592867421 64.0
46.597791277 59.0
46.602715133 62.0
46.607638989 57.0
46.612562845 53.0
46.617486701 43.0
46.622410557 54.0
46.627334413 51.0
46.632258269 59.0
46.637182125 60.0
46.642105981 60.0
46.647029837 58.0
46.651953693 50.0
46.656877549 69.0
46.661801405 55.0
46.666725261 55.0
46.671649117 41.0
46.676572973 65.0
46.681496829 58.0
46.686420685 50.0
46.691344541 59.0
46.696268397 53.0
46.701192253 50.0
46.706116109 68.0
46.711039965 67.0
46.715963821 66.0
46.720887677 47.0
46.725811533 65.0
46.730735389 66.0
46.735659245 64.0
46.740583101 61.0
46.745506957 52.0
46.750430813 61.0
46.755354670 80.0
46.760278526 50.0
46.765202382 62.0
46.770126238 59.0
46.775050094 56.0
46.779973950 43.0
46.784897806 63.0
46.789821662 63.0
46.794745518 50.0
46.799669374 59.0
46.804593230 63.0
46.809517086 56.0
46.814440942 69.0
46.819364798 52.0
46.824288654 71.0
46.829212510 65.0
46.834136366 49.0
46.839060222 66.0
46.843984078 49.0
46.848907934 66.0
46.853831790 59.0
46.858755646 57.0
46.863679502 42.0
46.868603358 66.0
46.873527214 48.0
46.878451070 53.0
46.883374926 57.0
46.888298782 56.0
46.893222638 61.0
46.898146494 77.0
46.903070350 62.0
46.907994206 64.0
46.912918062 60.0
46.917841918 64.0
46.922765774 62.0
46.927689630 60.0
46.932613486 48.0
46.937537342 57.0
46.942461198 64.0
46.947385054 62.0
46.952308910 71.0
46.957232766 59.0
46.962156622 53.0
46.967080478 55.0
46.972004334 61.0
46.976928190 67.0
46.981852046 69.0
46.986775902 69.0
46.991699758 69.0
46.996623614 64.0
47.001547470 80.0
47.006471326 60.0
47.011395182 74.0
47.016319038 78.0
47.021242894 72.0
47.026166750 96.0
47.031090606 83.0
47.036014462 96.0
47.040938318 104.0
47.045862174 112.0
47.050786030 112.0
47.055709886 138.0
47.060633742 130.0
47.065557598 167.0
47.070481454 170.0
47.075405310 206.0
47.080329166 296.0
47.085253022 361.0
47.090176878 465.0
47.095100734 539.0
47.100024590 674.0
47.104948446 801.0
47.109872302 931.0
47.114796158 925.0
47.119720014 1036.0
47.124643870 972.0
47.129567726 822.0
47.134491582 770.0
47.139415438 655.0
47.144339294 529.0
47.149263150 411.0
47.154187006 387.0
47.159110862 335.0
47.164034718 293.0
47.168958574 279.0
47.173882430 273.0
47.178806286 215.0
47.183730142 199.0
47.188653998 216.0
47.193577854 167.0
47.198501710 196.0
47.203425566 166.0
47.208349422 165.0
47.213273278 155.0
47.218197134 121.0
47.223120990 114.0
47.228044846 100.0
47.232968702 85.0
47.237892558 93.0
47.242816414 89.0
47.247740270 86.0
47.252664127 85.0
47.257587983 63.0
47.262511839 70.0
47.267435695 70.0
47.272359551 83.0
47.277283407 84.0
47.282207263 89.0
47.287131119 84.0
47.292054975 70.0
47.296978831 82.0
47.301902687 85.0
47.306826543 79.0
47.311750399 80.0
47.316674255 84.0
47.321598111 71.0
47.326521967 64.0
47.331445823 75.0
47.336369679 72.0
47.341293535 71.0
47.346217391 46.0
47.351141247 80.0
47.356065103 66.0
47.360988959 62.0
47.365912815 69.0
47.370836671 70.0
47.375760527 75.0
47.380684383 55.0
47.385608239 52.0
47.390532095 63.0
47.395455951 77.0
47.400379807 71.0
47.405303663 71.0
47.410227519 64.0
47.415151375 61.0
47.420075231 45.0
47.424999087 65.0
47.429922943 61.0
47.434846799 71.0
47.439770655 68.0
47.444694511 51.0
47.449618367 70.0
47.454542223 66.0
47.459466079 69.0
47.464389935 61.0
47.469313791 70.0
47.474237647 70.0
47.479161503 61.0
47.484085359 53.0
47.489009215 63.0
47.493933071 61.0
47.498856927 62.0
47.503780783 67.0
47.508704639 61.0
47.513628495 53.0
47.518552351 76.0
47.523476207 70.0
47.528400063 58.0
47.533323919 61.0
47.538247775 66.0
47.543171631 74.0
47.548095487 80.0
47.553019343 69.0
47.557943199 58.0
47.562867055 74.0
47.567790911 55.0
47.572714767 68.0
47.577638623 64.0
47.582562479 65.0
47.587486335 61.0
47.592410191 58.0
47.597334047 52.0
47.602257903 51.0
47.607181759 63.0
47.612105615 54.0
47.617029471 73.0
47.621953327 66.0
47.626877183 51.0
47.631801039 50.0
47.636724895 57.0
47.641648751 67.0
47.646572607 61.0
47.651496463 63.0
47.656420319 57.0
47.661344175 70.0
47.666268031 65.0
47.671191887 76.0
47.676115743 62.0
47.681039599 49.0
47.685963455 77.0
47.690887311 68.0
47.695811167 66.0
47.700735023 68.0
47.705658879 59.0
47.710582735 55.0
47.715506591 62.0
47.720430447 60.0
47.725354303 63.0
47.730278159 78.0
47.735202015 70.0
47.740125871 60.0
47.745049727 60.0
47.749973583 58.0
47.754897440 52.0
47.759821296 70.0
47.764745152 49.0
47.769669008 70.0
47.774592864 59.0
47.779516720 64.0
47.784440576 49.0
47.789364432 59.0
47.794288288 62.0
47.799212144 66.0
47.804136000 70.0
47.809059856 75.0
47.813983712 67.0
47.818907568 53.0
47.823831424 76.0
47.828755280 55.0
47.833679136 65.0
47.838602992 56.0
47.843526848 60.0
47.848450704 56.0
47.853374560 61.0
47.858298416 68.0
47.863222272 69.0
47.868146128 63.0
47.873069984 53.0
47.877993840 74.0
47.882917696 59.0
47.887841552 41.0
47.892765408 77.0
47.897689264 55.0
47.902613120 56.0
47.907536976 62.0
47.912460832 62.0
47.917384688 70.0
47.922308544 61.0
47.927232400 72.0
47.932156256 60.0
47.937080112 72.0
47.942003968 59.0
47.946927824 53.0
47.951851680 66.0
47.956775536 58.0
47.961699392 77.0
47.966623248 54.0
47.971547104 58.0
47.976470960 66.0
47.981394816 57.0
47.986318672 59.0
47.991242528 59.0
47.996166384 57.0
48.001090240 73.0
48.006014096 60.0
48.010937952 65.0
48.015861808 56.0
48.020785664 52.0
48.025709520 68.0
48.030633376 63.0
48.035557232 64.0
48.040481088 83.0
48.045404944 62.0
48.050328800 72.0
48.055252656 53.0
48.060176512 73.0
48.065100368 71.0
48.070024224 68.0
48.074948080 66.0
48.079871936 75.0
48.084795792 60.0
48.089719648 52.0
48.094643504 59.0
48.099567360 62.0
48.104491216 59.0
48.109415072 62.0
48.114338928 58.0
48.119262784 52.0
48.124186640 65.0
48.129110496 54.0
48.134034352 66.0
48.138958208 64.0
48.143882064 62.0
48.148805920 56.0
48.153729776 68.0
48.158653632 69.0
48.163577488 67.0
48.168501344 65.0
48.173425200 56.0
48.178349056 54.0
48.183272912 68.0
48.188196768 77.0
48.193120624 67.0
48.198044480 61.0
48.202968336 69.0
48.207892192 69.0
48.212816048 51.0
48.217739904 60.0
48.222663760 55.0
48.227587616 63.0
48.232511472 74.0
48.237435328 76.0
48.242359184 75.0
48.247283040 48.0
48.252206897 79.0
48.257130753 64.0
48.262054609 56.0
48.266978465 51.0
48.271902321 55.0
48.276826177 64.0
48.281750033 78.0
48.286673889 70.0
48.291597745 55.0
48.296521601 59.0
48.301445457 60.0
48.306369313 49.0
48.311293169 69.0
48.316217025 78.0
48.321140881 66.0
48.326064737 55.0
48.330988593 66.0
48.335912449 58.0
48.340836305 59.0
48.345760161 74.0
48.350684017 67.0
48.355607873 59.0
48.360531729 57.0
48.365455585 67.0
48.370379441 63.0
48.375303297 51.0
48.380227153 67.0
48.385151009 74.0
48.390074865 55.0
48.394998721 47.0
48.399922577 64.0
48.404846433 54.0
48.409770289 58.0
48.414694145 58.0
48.419618001 47.0
48.424541857 63.0
48.429465713 70.0
48.434389569 79.0
48.439313425 66.0
48.444237281 58.0
48.449161137 75.0
48.454084993 59.0
48.459008849 73.0
48.463932705 62.0
48.468856561 56.0
48.473780417 74.0
48.478704273 59.0
48.483628129 52.0
48.488551985 64.0
48.493475841 71.0
48.498399697 56.0
48.503323553 55.0
48.508247409 58.0
48.513171265 52.0
48.518095121 56.0
48.523018977 56.0
48.527942833 64.0
48.532866689 67.0
48.537790545 73.0
48.542714401 88.0
48.547638257 63.0
48.552562113 74.0
48.557485969 71.0
48.562409825 69.0
48.567333681 50.0
48.572257537 73.0
48.577181393 62.0
48.582105249 73.0
48.587029105 66.0
48.591952961 65.0
48.596876817 53.0
48.601800673 55.0
48.606724529 53.0
48.611648385 61.0
48.616572241 69.0
48.621496097 75.0
48.626419953 66.0
48.631343809 66.0
48.636267665 66.0
48.641191521 67.0
48.646115377 73.0
48.651039233 63.0
48.655963089 74.0
48.660886945 65.0
48.665810801 68.0
48.670734657 77.0
48.675658513 70.0
48.680582369 55.0
48.685506225 63.0
48.690430081 64.0
48.695353937 71.0
48.700277793 70.0
48.705201649 58.0
48.710125505 70.0
48.715049361 56.0
48.719973217 70.0
48.724897073 58.0
48.729820929 72.0
48.734744785 57.0
48.739668641 64.0
48.744592497 66.0
48.749516353 56.0
48.754440210 64.0
48.759364066 75.0
48.764287922 62.0
48.769211778 74.0
48.774135634 80.0
48.779059490 63.0
48.783983346 67.0
48.788907202 63.0
48.793831058 65.0
48.798754914 74.0
48.803678770 60.0
48.808602626 78.0
48.813526482 66.0
48.818450338 64.0
48.823374194 70.0
48.828298050 70.0
48.833221906 54.0
48.838145762 54.0
48.843069618 68.0
48.847993474 63.0
48.852917330 72.0
48.857841186 69.0
48.862765042 70.0
48.867688898 69.0
48.872612754 63.0
48.877536610 69.0
48.882460466 68.0
48.887384322 62.0
48.892308178 71.0
48.897232034 79.0
48.902155890 66.0
48.907079746 83.0
48.912003602 76.0
48.916927458 56.0
48.921851314 71.0
48.926775170 83.0
48.931699026 60.0
48.936622882 72.0
48.941546738 65.0
48.946470594 82.0
48.951394450 73.0
48.956318306 84.0
48.961242162 78.0
48.966166018 76.0
48.971089874 94.0
48.976013730 86.0
48.980937586 65.0
48.985861442 53.0
48.990785298 84.0
48.995709154 72.0
49.000633010 76.0
49.005556866 72.0
49.010480722 73.0
49.015404578 84.0
49.020328434 88.0
49.025252290 78.0
49.030176146 79.0
49.035100002 80.0
49.040023858 74.0
49.044947714 88.0
49.049871570 78.0
49.054795426 77.0
49.059719282 65.0
49.064643138 74.0
49.069566994 79.0
49.074490850 66.0
49.079414706 79.0
49.084338562 82.0
49.089262418 75.0
49.094186274 79.0
49.099110130 86.0
49.104033986 89.0
49.108957842 70.0
49.113881698 91.0
49.118805554 73.0
49.123729410 77.0
49.128653266 83.0
49.133577122 82.0
49.138500978 85.0
49.143424834 64.0
49.148348690 81.0
49.153272546 92.0
49.158196402 67.0
49.163120258 76.0
49.168044114 82.0
49.172967970 101.0
49.177891826 90.0
49.182815682 64.0
49.187739538 75.0
49.192663394 69.0
49.197587250 92.0
49.202511106 84.0
49.207434962 94.0
49.212358818 73.0
49.217282674 81.0
49.222206530 82.0
49.227130386 87.0
49.232054242 101.0
49.236978098 87.0
49.241901954 101.0
49.246825810 99.0
49.251749667 88.0
49.256673523 101.0
49.261597379 95.0
49.266521235 89.0
49.271445091 81.0
49.276368947 88.0
49.281292803 93.0
49.286216659 84.0
49.291140515 96.0
49.296064371 86.0
49.300988227 94.0
49.305912083 94.0
49.310835939 82.0
49.315759795 107.0
49.320683651 100.0
49.325607507 113.0
49.330531363 97.0
49.335455219 104.0
49.340379075 111.0
49.345302931 109.0
49.350226787 96.0
49.355150643 103.0
49.360074499 107.0
49.364998355 111.0
49.369922211 128.0
49.374846067 116.0
49.379769923 100.0
49.384693779 116.0
49.389617635 106.0
49.394541491 104.0
49.399465347 88.0
49.404389203 102.0
49.409313059 107.0
49.414236915 93.0
49.419160771 115.0
49.424084627 103.0
49.429008483 117.0
49.433932339 131.0
49.438856195 118.0
49.443780051 123.0
49.448703907 122.0
49.453627763 122.0
49.458551619 119.0
49.463475475 126.0
49.468399331 118.0
49.473323187 122.0
49.478247043 123.0
49.483170899 152.0
49.488094755 130.0
49.493018611 150.0
49.497942467 125.0
49.502866323 135.0
49.507790179 156.0
49.512714035 162.0
49.517637891 123.0
49.522561747 130.0
49.527485603 131.0
49.532409459 166.0
49.537333315 155.0
49.542257171 161.0
49.547181027 152.0
49.552104883 147.0
49.557028739 160.0
49.561952595 169.0
49.566876451 171.0
49.571800307 178.0
49.576724163 162.0
49.581648019 189.0
49.586571875 197.0
49.591495731 169.0
49.596419587 163.0
49.601343443 161.0
49.606267299 159.0
49.611191155 187.0
49.616115011 189.0
49.621038867 195.0
49.625962723 195.0
49.630886579 186.0
49.635810435 208.0
49.640734291 249.0
49.645658147 229.0
49.650582003 235.0
49.655505859 228.0
49.660429715 255.0
49.665353571 241.0
49.670277427 235.0
49.675201283 255.0
49.680125139 292.0
49.685048995 239.0
49.689972851 241.0
49.694896707 280.0
49.699820563 279.0
49.704744419 306.0
49.709668275 280.0
49.714592131 270.0
49.719515987 313.0
49.724439843 345.0
49.729363699 340.0
49.734287555 310.0
49.739211411 329.0
49.744135267 359.0
49.749059123 395.0
49.753982980 392.0
49.758906836 368.0
49.763830692 386.0
49.768754548 391.0
49.773678404 395.0
49.778602260 416.0
49.783526116 426.0
49.788449972 491.0
49.793373828 466.0
49.798297684 455.0
49.803221540 475.0
49.808145396 517.0
49.813069252 544.0
49.817993108 530.0
49.822916964 532.0
49.827840820 557.0
49.832764676 561.0
49.837688532 635.0
49.842612388 622.0
49.847536244 641.0
49.852460100 669.0
49.857383956 698.0
49.862307812 692.0
49.867231668 696.0
49.872155524 744.0
49.877079380 757.0
49.882003236 808.0
49.886927092 795.0
49.891850948 870.0
49.896774804 876.0
49.901698660 950.0
49.906622516 1015.0
49.911546372 1006.0
49.916470228 1017.0
49.921394084 1056.0
49.926317940 1091.0
49.931241796 1173.0
49.936165652 1232.0
49.941089508 1217.0
49.946013364 1300.0
49.950937220 1304.0
49.955861076 1398.0
49.960784932 1399.0
49.965708788 1542.0
49.970632644 1476.0
49.975556500 1499.0
49.980480356 1562.0
49.985404212 1662.0
49.990328068 1695.0
49.995251924 1773.0
50.000175780 1818.0
50.005099636 1827.0
50.010023492 1846.0
50.014947348 1795.0
50.019871204 1933.0
50.024795060 1904.0
50.029718916 1966.0
50.034642772 2047.0
50.039566628 2001.0
50.044490484 1924.0
50.049414340 1982.0
50.054338196 1958.0
50.059262052 2030.0
50.064185908 1995.0
50.069109764 2047.0
50.074033620 2130.0
50.078957476 2043.0
50.083881332 2028.0
50.088805188 2023.0
50.093729044 1993.0
50.098652900 1964.0
50.103576756 2038.0
50.108500612 2006.0
50.113424468 1860.0
50.118348324 1938.0
50.123272180 1909.0
50.128196036 1860.0
50.133119892 1819.0
50.138043748 1891.0
50.142967604 1858.0
50.147891460 1826.0
50.152815316 1810.0
50.157739172 1793.0
50.162663028 1716.0
50.167586884 1660.0
50.172510740 1665.0
50.177434596 1552.0
50.182358452 1575.0
50.187282308 1579.0
50.192206164 1520.0
50.197130020 1541.0
50.202053876 1477.0
50.206977732 1371.0
50.211901588 1355.0
50.216825444 1303.0
50.221749300 1351.0
50.226673156 1291.0
50.231597012 1261.0
50.236520868 1176.0
50.241444724 1113.0
50.246368580 1157.0
50.251292437 1090.0
50.256216293 1097.0
50.261140149 1078.0
50.266064005 1016.0
50.270987861 911.0
50.275911717 898.0
50.280835573 896.0
50.285759429 887.0
50.290683285 807.0
50.295607141 808.0
50.300530997 776.0
50.305454853 748.0
50.310378709 682.0
50.315302565 684.0
50.320226421 675.0
50.325150277 663.0
50.330074133 681.0
50.334997989 585.0
50.339921845 594.0
50.344845701 588.0
50.349769557 537.0
50.354693413 492.0
50.359617269 480.0
50.364541125 484.0
50.369464981 494.0
50.374388837 436.0
50.379312693 478.0
50.384236549 420.0
50.389160405 424.0
50.394084261 414.0
50.399008117 400.0
50.403931973 374.0
50.408855829 393.0
50.413779685 391.0
50.418703541 339.0
50.423627397 341.0
50.428551253 332.0
50.433475109 348.0
50.438398965 318.0
50.443322821 335.0
50.448246677 303.0
50.453170533 304.0
50.458094389 315.0
50.463018245 291.0
50.467942101 282.0
50.472865957 295.0
50.477789813 287.0
50.482713669 263.0
50.487637525 263.0
50.492561381 240.0
50.497485237 242.0
50.502409093 270.0
50.507332949 231.0
50.512256805 243.0
50.517180661 266.0
50.522104517 216.0
50.527028373 199.0
50.531952229 231.0
50.536876085 217.0
50.541799941 184.0
50.546723797 228.0
50.551647653 207.0
50.556571509 186.0
50.561495365 179.0
50.566419221 200.0
50.571343077 168.0
50.576266933 191.0
50.581190789 184.0
50.586114645 204.0
50.591038501 192.0
50.595962357 169.0
50.600886213 186.0
50.605810069 188.0
50.610733925 190.0
50.615657781 165.0
50.620581637 168.0
50.625505493 153.0
50.630429349 159.0
50.635353205 157.0
50.640277061 183.0
50.645200917 132.0
50.650124773 132.0
50.655048629 142.0
50.659972485 156.0
50.664896341 147.0
50.669820197 133.0
50.674744053 147.0
50.679667909 135.0
50.684591765 157.0
50.689515621 136.0
50.694439477 146.0
50.699363333 157.0
50.704287189 149.0
50.709211045 141.0
50.714134901 151.0
50.719058757 119.0
50.723982613 155.0
50.728906469 144.0
50.733830325 150.0
50.738754181 119.0
50.743678037 142.0
50.748601893 120.0
50.753525750 116.0
50.758449606 123.0
50.763373462 136.0
50.768297318 125.0
50.773221174 140.0
50.778145030 135.0
50.783068886 131.0
50.787992742 127.0
50.792916598 120.0
50.797840454 117.0
50.802764310 115.0
50.807688166 132.0
50.812612022 117.0
50.817535878 134.0
50.822459734 132.0
50.827383590 135.0
50.832307446 129.0
50.837231302 135.0
50.842155158 118.0
50.847079014 124.0
50.852002870 135.0
50.856926726 111.0
50.861850582 123.0
50.866774438 120.0
50.871698294 145.0
50.876622150 109.0
50.881546006 120.0
50.886469862 126.0
50.891393718 117.0
50.896317574 127.0
50.901241430 129.0
50.906165286 106.0
50.911089142 128.0
50.916012998 132.0
50.920936854 128.0
50.925860710 124.0
50.930784566 105.0
50.935708422 128.0
50.940632278 118.0
50.945556134 138.0
50.950479990 124.0
50.955403846 124.0
50.960327702 136.0
50.965251558 117.0
50.970175414 133.0
50.975099270 113.0
50.980023126 115.0
50.984946982 140.0
50.989870838 119.0
50.994794694 134.0
50.999718550 135.0
51.004642406 135.0
51.009566262 115.0
51.014490118 124.0
51.019413974 139.0
51.024337830 146.0
51.029261686 111.0
51.034185542 134.0
51.039109398 137.0
51.044033254 150.0
51.048957110 124.0
51.053880966 125.0
51.058804822 127.0
51.063728678 140.0
51.068652534 127.0
51.073576390 119.0
51.078500246 137.0
51.083424102 135.0
51.088347958 118.0
51.093271814 128.0
51.098195670 124.0
51.103119526 157.0
51.108043382 136.0
51.112967238 149.0
51.117891094 116.0
51.122814950 136.0
51.127738806 143.0
51.132662662 143.0
51.137586518 147.0
51.142510374 137.0
51.147434230 129.0
51.152358086 129.0
51.157281942 144.0
51.162205798 148.0
51.167129654 129.0
51.172053510 156.0
51.176977366 134.0
51.181901222 153.0
51.186825078 136.0
51.191748934 153.0
51.196672790 128.0
51.201596646 143.0
51.206520502 141.0
51.211444358 129.0
51.216368214 158.0
51.221292070 141.0
51.226215926 149.0
51.231139782 153.0
51.236063638 127.0
51.240987494 162.0
51.245911350 157.0
51.250835207 139.0
51.255759063 148.0
51.260682919 159.0
51.265606775 168.0
51.270530631 152.0
51.275454487 160.0
51.280378343 156.0
51.285302199 180.0
51.290226055 142.0
51.295149911 142.0
51.300073767 145.0
51.304997623 164.0
51.309921479 163.0
51.314845335 183.0
51.319769191 180.0
51.324693047 149.0
51.329616903 162.0
51.334540759 157.0
51.339464615 152.0
51.344388471 161.0
51.349312327 149.0
51.354236183 157.0
51.359160039 195.0
51.364083895 172.0
51.369007751 164.0
51.373931607 170.0
51.378855463 156.0
51.383779319 141.0
51.388703175 162.0
51.393627031 160.0
51.398550887 170.0
51.403474743 190.0
51.408398599 179.0
51.413322455 190.0
51.418246311 183.0
51.423170167 155.0
51.428094023 188.0
51.433017879 190.0
51.437941735 184.0
51.442865591 186.0
51.447789447 196.0
51.452713303 187.0
51.457637159 179.0
51.462561015 193.0
51.467484871 188.0
51.472408727 184.0
51.477332583 183.0
51.482256439 210.0
51.487180295 213.0
51.492104151 186.0
51.497028007 193.0
51.501951863 185.0
51.506875719 171.0
51.511799575 210.0
51.516723431 257.0
51.521647287 205.0
51.526571143 200.0
51.531494999 206.0
51.536418855 193.0
51.541342711 189.0
51.546266567 211.0
51.551190423 194.0
51.556114279 194.0
51.561038135 217.0
51.565961991 264.0
51.570885847 201.0
51.575809703 196.0
51.580733559 205.0
51.585657415 212.0
51.590581271 282.0
51.595505127 257.0
51.600428983 205.0
51.605352839 205.0
51.610276695 266.0
51.615200551 196.0
51.620124407 208.0
51.625048263 272.0
51.629972119 255.0
51.634895975 281.0
51.639819831 267.0
51.644743687 263.0
51.649667543 262.0
51.654591399 271.0
51.659515255 285.0
51.664439111 216.0
51.669362967 266.0
51.674286823 279.0
51.679210679 282.0
51.684134535 283.0
51.689058391 267.0
51.693982247 260.0
51.698906103 282.0
51.703829959 292.0
51.708753815 299.0
51.713677671 301.0
51.718601527 318.0
51.723525383 276.0
51.728449239 282.0
51.733373095 282.0
51.738296951 312.0
51.743220807 301.0
51.748144663 290.0
51.753068520 306.0
51.757992376 258.0
51.762916232 329.0
51.767840088 302.0
51.772763944 322.0
51.777687800 312.0
51.782611656 327.0
51.787535512 316.0
51.792459368 326.0
51.797383224 337.0
51.802307080 306.0
51.807230936 302.0
51.812154792 344.0
51.817078648 329.0
51.822002504 311.0
51.826926360 344.0
51.831850216 329.0
51.836774072 352.0
51.841697928 336.0
51.846621784 352.0
51.851545640 324.0
51.856469496 357.0
51.861393352 347.0
51.866317208 337.0
51.871241064 327.0
51.876164920 336.0
51.881088776 365.0
51.886012632 346.0
51.890936488 376.0
51.895860344 351.0
51.900784200 346.0
51.905708056 359.0
51.910631912 385.0
51.915555768 378.0
51.920479624 347.0
51.925403480 363.0
51.930327336 378.0
51.935251192 392.0
51.940175048 413.0
51.945098904 396.0
51.950022760 420.0
51.954946616 407.0
51.959870472 406.0
51.964794328 393.0
51.969718184 421.0
51.974642040 407.0
51.979565896 440.0
51.984489752 450.0
51.989413608 399.0
51.994337464 439.0
51.999261320 439.0
52.004185176 452.0
52.009109032 434.0
52.014032888 466.0
52.018956744 433.0
52.023880600 499.0
52.028804456 507.0
52.033728312 489.0
52.038652168 500.0
52.043576024 511.0
52.048499880 529.0
52.053423736 507.0
52.058347592 516.0
52.063271448 558.0
52.068195304 544.0
52.073119160 577.0
52.078043016 554.0
52.082966872 549.0
52.087890728 594.0
52.092814584 576.0
52.097738440 602.0
52.102662296 594.0
52.107586152 613.0
52.112510008 605.0
52.117433864 683.0
52.122357720 638.0
52.127281576 675.0
52.132205432 695.0
52.137129288 671.0
52.142053144 703.0
52.146977000 762.0
52.151900856 784.0
52.156824712 747.0
52.161748568 782.0
52.166672424 754.0
52.171596280 816.0
52.176520136 903.0
52.181443992 923.0
52.186367848 983.0
52.191291704 934.0
52.196215560 1060.0
52.201139416 1116.0
52.206063272 1170.0
52.210987128 1291.0
52.215910984 1384.0
52.220834840 1427.0
52.225758696 1569.0
52.230682552 1651.0
52.235606408 1785.0
52.240530264 1913.0
52.245454120 2090.0
52.250377977 2012.0
52.255301833 2240.0
52.260225689 2189.0
52.265149545 2421.0
52.270073401 2334.0
52.274997257 2254.0
52.279921113 2404.0
52.284844969 2438.0
52.289768825 2447.0
52.294692681 2426.0
52.299616537 2382.0
52.304540393 2276.0
52.309464249 2292.0
52.314388105 2318.0
52.319311961 2226.0
52.324235817 2219.0
52.329159673 2209.0
52.334083529 2293.0
52.339007385 2301.0
52.343931241 2324.0
52.348855097 2360.0
52.353778953 2469.0
52.358702809 2520.0
52.363626665 2726.0
52.368550521 2731.0
52.373474377 2908.0
52.378398233 3070.0
52.383322089 3331.0
52.388245945 3581.0
52.393169801 3767.0
52.398093657 4030.0
52.403017513 4481.0
52.407941369 4844.0
52.412865225 5415.0
52.417789081 5995.0
52.422712937 6616.0
52.427636793 7560.0
52.432560649 8436.0
52.437484505 9612.0
52.442408361 10934.0
52.447332217 12841.0
52.452256073 15251.0
52.457179929 18550.0
52.462103785 22947.0
52.467027641 29554.0
52.471951497 39246.0
52.476875353 54992.0
52.481799209 81246.0
52.486723065 121647.0
52.491646921 179324.0
52.496570777 233483.0
52.501494633 270417.0
52.506418489 285784.0
52.511342345 281272.0
52.516266201 256787.0
52.521190057 211621.0
52.526113913 159703.0
52.531037769 112454.0
52.535961625 80491.0
52.540885481 58493.0
52.545809337 43806.0
52.550733193 32647.0
52.555657049 25744.0
52.560580905 20835.0
52.565504761 17669.0
52.570428617 15486.0
52.575352473 14196.0
52.580276329 13235.0
52.585200185 12979.0
52.590124041 13202.0
52.595047897 14108.0
52.599971753 15678.0
52.604895609 18460.0
52.609819465 22307.0
52.614743321 28992.0
52.619667177 38815.0
52.624591033 55318.0
52.629514889 76614.0
52.634438745 102519.0
52.639362601 123269.0
52.644286457 137482.0
52.649210313 140515.0
52.654134169 134126.0
52.659058025 118969.0
52.663981881 95708.0
52.668905737 74190.0
52.673829593 53540.0
52.678753449 39269.0
52.683677305 28361.0
52.688601161 21810.0
52.693525017 16511.0
52.698448873 13383.0
52.703372729 10658.0
52.708296585 9068.0
52.713220441 7608.0
52.718144297 6606.0
52.723068153 5683.0
52.727992009 5258.0
52.732915865 4570.0
52.737839721 4216.0
52.742763577 3818.0
52.747687433 3576.0
52.752611290 3387.0
52.757535146 3188.0
52.762459002 3047.0
52.767382858 2805.0
52.772306714 2545.0
52.777230570 2425.0
52.782154426 2332.0
52.787078282 2246.0
52.792002138 2239.0
52.796925994 2021.0
52.801849850 1949.0
52.806773706 1841.0
52.811697562 1813.0
52.816621418 1714.0
52.821545274 1680.0
52.826469130 1588.0
52.831392986 1536.0
52.836316842 1528.0
52.841240698 1396.0
52.846164554 1380.0
52.851088410 1377.0
52.856012266 1358.0
52.860936122 1252.0
52.865859978 1254.0
52.870783834 1183.0
52.875707690 1140.0
52.880631546 1124.0
52.885555402 1119.0
52.890479258 1103.0
52.895403114 998.0
52.900326970 993.0
52.905250826 1042.0
52.910174682 971.0
52.915098538 955.0
52.920022394 927.0
52.924946250 906.0
52.929870106 916.0
52.934793962 905.0
52.939717818 889.0
52.944641674 838.0
52.949565530 830.0
52.954489386 807.0
52.959413242 783.0
52.964337098 719.0
52.969260954 761.0
52.974184810 674.0
52.979108666 733.0
52.984032522 676.0
52.988956378 667.0
52.993880234 646.0
52.998804090 671.0
53.003727946 634.0
53.008651802 597.0
53.013575658 604.0
53.018499514 575.0
53.023423370 619.0
53.028347226 571.0
53.033271082 568.0
53.038194938 568.0
53.043118794 570.0
53.048042650 562.0
53.052966506 585.0
53.057890362 545.0
53.062814218 503.0
53.067738074 544.0
53.072661930 499.0
53.077585786 493.0
53.082509642 502.0
53.087433498 457.0
53.092357354 470.0
53.097281210 487.0
53.102205066 514.0
53.107128922 449.0
53.112052778 426.0
53.116976634 430.0
53.121900490 440.0
53.126824346 462.0
53.131748202 423.0
53.136672058 410.0
53.141595914 380.0
53.146519770 442.0
53.151443626 428.0
53.156367482 413.0
53.161291338 372.0
53.166215194 412.0
53.171139050 354.0
53.176062906 385.0
53.180986762 368.0
53.185910618 389.0
53.190834474 410.0
53.195758330 370.0
53.200682186 369.0
53.205606042 319.0
53.210529898 366.0
53.215453754 352.0
53.220377610 333.0
53.225301466 336.0
53.230225322 315.0
53.235149178 311.0
53.240073034 331.0
53.244996890 356.0
53.249920747 313.0
53.254844603 316.0
53.259768459 310.0
53.264692315 324.0
53.269616171 315.0
53.274540027 292.0
53.279463883 301.0
53.284387739 296.0
53.289311595 311.0
53.294235451 300.0
53.299159307 296.0
53.304083163 297.0
53.309007019 278.0
53.313930875 280.0
53.318854731 261.0
53.323778587 291.0
53.328702443 258.0
53.333626299 271.0
53.338550155 287.0
53.343474011 274.0
53.348397867 258.0
53.353321723 195.0
53.358245579 255.0
53.363169435 256.0
53.368093291 257.0
53.373017147 257.0
53.377941003 268.0
53.382864859 212.0
53.387788715 262.0
53.392712571 275.0
53.397636427 256.0
53.402560283 205.0
53.407484139 178.0
53.412407995 180.0
53.417331851 206.0
53.422255707 205.0
53.427179563 173.0
53.432103419 203.0
53.437027275 204.0
53.441951131 194.0
53.446874987 201.0
53.451798843 201.0
53.456722699 176.0
53.461646555 201.0
53.466570411 190.0
53.471494267 171.0
53.476418123 171.0
53.481341979 178.0
53.486265835 180.0
53.491189691 170.0
53.496113547 159.0
53.501037403 153.0
53.505961259 165.0
53.510885115 167.0
53.515808971 176.0
53.520732827 171.0
53.525656683 170.0
53.530580539 179.0
53.535504395 164.0
53.540428251 159.0
53.545352107 149.0
53.550275963 173.0
53.555199819 156.0
53.560123675 144.0
53.565047531 152.0
53.569971387 146.0
53.574895243 143.0
53.579819099 165.0
53.584742955 136.0
53.589666811 130.0
53.594590667 148.0
53.599514523 153.0
53.604438379 139.0
53.609362235 132.0
53.614286091 148.0
53.619209947 121.0
53.624133803 110.0
53.629057659 129.0
53.633981515 135.0
53.638905371 139.0
53.643829227 132.0
53.648753083 148.0
53.653676939 128.0
53.658600795 141.0
53.663524651 153.0
53.668448507 144.0
53.673372363 122.0
53.678296219 130.0
53.683220075 131.0
53.688143931 136.0
53.693067787 119.0
53.697991643 129.0
53.702915499 125.0
53.707839355 133.0
53.712763211 121.0
53.717687067 136.0
53.722610923 122.0
53.727534779 120.0
53.732458635 125.0
53.737382491 105.0
53.742306347 114.0
53.747230203 87.0
53.752154060 115.0
53.757077916 119.0
53.762001772 119.0
53.766925628 104.0
53.771849484 113.0
53.776773340 107.0
53.781697196 121.0
53.786621052 117.0
53.791544908 115.0
53.796468764 109.0
53.801392620 99.0
53.806316476 118.0
53.811240332 101.0
53.816164188 100.0
53.821088044 103.0
53.826011900 112.0
53.830935756 102.0
53.835859612 92.0
53.840783468 101.0
53.845707324 105.0
53.850631180 122.0
53.855555036 100.0
53.860478892 103.0
53.865402748 99.0
53.870326604 92.0
53.875250460 97.0
53.880174316 116.0
53.885098172 103.0
53.890022028 105.0
53.894945884 106.0
53.899869740 122.0
53.904793596 85.0
53.909717452 105.0
53.914641308 102.0
53.919565164 95.0
53.924489020 96.0
53.929412876 99.0
53.934336732 77.0
53.939260588 107.0
53.944184444 94.0
53.949108300 88.0
53.954032156 77.0
53.958956012 104.0
53.963879868 94.0
53.968803724 101.0
53.973727580 100.0
53.978651436 93.0
53.983575292 86.0
53.988499148 102.0
53.993423004 92.0
53.998346860 88.0
54.003270716 91.0
54.008194572 87.0
54.013118428 92.0
54.018042284 96.0
54.022966140 92.0
54.027889996 91.0
54.032813852 89.0
54.037737708 92.0
54.042661564 87.0
54.047585420 78.0
54.052509276 93.0
54.057433132 107.0
54.062356988 89.0
54.067280844 95.0
54.072204700 101.0
54.077128556 78.0
54.082052412 90.0
54.086976268 85.0
54.091900124 75.0
54.096823980 105.0
54.101747836 85.0
54.106671692 79.0
54.111595548 84.0
54.116519404 96.0
54.121443260 85.0
54.126367116 91.0
54.131290972 92.0
54.136214828 94.0
54.141138684 79.0
54.146062540 72.0
54.150986396 103.0
54.155910252 91.0
54.160834108 86.0
54.165757964 89.0
54.170681820 77.0
54.175605676 99.0
54.180529532 79.0
54.185453388 94.0
54.190377244 71.0
54.195301100 106.0
54.200224956 85.0
54.205148812 84.0
54.210072668 70.0
54.214996524 77.0
54.219920380 81.0
54.224844236 101.0
54.229768092 67.0
54.234691948 86.0
54.239615804 87.0
54.244539660 84.0
54.249463517 74.0
54.254387373 76.0
54.259311229 69.0
54.264235085 93.0
54.269158941 78.0
54.274082797 81.0
54.279006653 95.0
54.283930509 90.0
54.288854365 66.0
54.293778221 69.0
54.298702077 62.0
54.303625933 78.0
54.308549789 83.0
54.313473645 80.0
54.318397501 89.0
54.323321357 64.0
54.328245213 91.0
54.333169069 75.0
54.338092925 84.0
54.343016781 81.0
54.347940637 82.0
54.352864493 83.0
54.357788349 88.0
54.362712205 67.0
54.367636061 62.0
54.372559917 94.0
54.377483773 77.0
54.382407629 71.0
54.387331485 76.0
54.392255341 85.0
54.397179197 91.0
54.402103053 92.0
54.407026909 76.0
54.411950765 80.0
54.416874621 61.0
54.421798477 73.0
54.426722333 79.0
54.431646189 83.0
54.436570045 77.0
54.441493901 75.0
54.446417757 83.0
54.451341613 77.0
54.456265469 85.0
54.461189325 74.0
54.466113181 84.0
54.471037037 68.0
54.475960893 58.0
54.480884749 80.0
54.485808605 71.0
54.490732461 89.0
54.495656317 69.0
54.500580173 86.0
54.505504029 71.0
54.510427885 78.0
54.515351741 82.0
54.520275597 65.0
54.525199453 77.0
54.530123309 69.0
54.535047165 80.0
54.539971021 76.0
54.544894877 71.0
54.549818733 70.0
54.554742589 70.0
54.559666445 75.0
54.564590301 78.0
54.569514157 83.0
54.574438013 72.0
54.579361869 75.0
54.584285725 68.0
54.589209581 86.0
54.594133437 73.0
54.599057293 81.0
54.603981149 75.0
54.608905005 64.0
54.613828861 58.0
54.618752717 83.0
54.623676573 69.0
54.628600429 76.0
54.633524285 84.0
54.638448141 70.0
54.643371997 57.0
54.648295853 71.0
54.653219709 64.0
54.658143565 58.0
54.663067421 71.0
54.667991277 76.0
54.672915133 71.0
54.677838989 59.0
54.682762845 70.0
54.687686701 66.0
54.692610557 75.0
54.697534413 82.0
54.702458269 87.0
54.707382125 75.0
54.712305981 65.0
54.717229837 77.0
54.722153693 76.0
54.727077549 80.0
54.732001405 88.0
54.736925261 59.0
54.741849117 58.0
54.746772973 65.0
54.751696830 74.0
54.756620686 65.0
54.761544542 80.0
54.766468398 77.0
54.771392254 74.0
54.776316110 86.0
54.781239966 64.0
54.786163822 73.0
54.791087678 68.0
54.796011534 63.0
54.800935390 68.0
54.805859246 62.0
54.810783102 73.0
54.815706958 84.0
54.820630814 67.0
54.825554670 81.0
54.830478526 55.0
54.835402382 74.0
54.840326238 63.0
54.845250094 75.0
54.850173950 76.0
54.855097806 50.0
54.860021662 63.0
54.864945518 67.0
54.869869374 95.0
54.874793230 81.0
54.879717086 86.0
54.884640942 84.0
54.889564798 70.0
54.894488654 77.0
54.899412510 72.0
54.904336366 69.0
54.909260222 67.0
54.914184078 59.0
54.919107934 74.0
54.924031790 69.0
54.928955646 52.0
54.933879502 70.0
54.938803358 59.0
54.943727214 58.0
54.948651070 60.0
54.953574926 67.0
54.958498782 60.0
54.963422638 69.0
54.968346494 71.0
54.973270350 68.0
54.978194206 52.0
54.983118062 73.0
54.988041918 61.0
54.992965774 69.0
54.997889630 57.0
