30.002461930 112.0
30.007385786 106.0
30.012309642 93.0
30.017233498 94.0
30.022157354 96.0
30.027081210 109.0
30.032005066 97.0
30.036928922 99.0
30.041852778 107.0
30.046776634 103.0
30.051700490 116.0
30.056624346 94.0
30.061548202 110.0
30.066472058 107.0
30.071395914 67.0
30.076319770 92.0
30.081243626 91.0
30.086167482 123.0
30.091091338 92.0
30.096015194 106.0
30.100939050 112.0
30.105862906 110.0
30.110786762 104.0
30.115710618 119.0
30.120634474 98.0
30.125558330 78.0
30.130482186 87.0
30.135406042 107.0
30.140329898 99.0
30.145253754 99.0
30.150177610 115.0
30.155101466 107.0
30.160025322 102.0
30.164949178 137.0
30.169873034 113.0
30.174796890 92.0
30.179720746 96.0
30.184644602 97.0
30.189568458 96.0
30.194492314 102.0
30.199416170 112.0
30.204340026 94.0
30.209263882 103.0
30.214187738 105.0
30.219111594 90.0
30.224035450 96.0
30.228959306 91.0
30.233883162 111.0
30.238807018 117.0
30.243730874 112.0
30.248654730 112.0
30.253578587 102.0
30.258502443 105.0
30.263426299 102.0
30.268350155 120.0
30.273274011 87.0
30.278197867 119.0
30.283121723 118.0
30.288045579 106.0
30.292969435 105.0
30.297893291 106.0
30.302817147 110.0
30.307741003 109.0
30.312664859 107.0
30.317588715 114.0
30.322512571 124.0
30.327436427 111.0
30.332360283 113.0
30.337284139 96.0
30.342207995 123.0
30.347131851 106.0
30.352055707 121.0
30.356979563 103.0
30.361903419 113.0
30.366827275 114.0
30.371751131 120.0
30.376674987 113.0
30.381598843 102.0
30.386522699 94.0
30.391446555 103.0
30.396370411 108.0
30.401294267 116.0
30.406218123 109.0
30.411141979 97.0
30.416065835 111.0
30.420989691 103.0
30.425913547 98.0
30.430837403 123.0
30.435761259 100.0
30.440685115 92.0
30.445608971 94.0
30.450532827 109.0
30.455456683 114.0
30.460380539 90.0
30.465304395 104.0
30.470228251 112.0
30.475152107 106.0
30.480075963 107.0
30.484999819 80.0
30.489923675 98.0
30.494847531 91.0
30.499771387 98.0
30.504695243 94.0
30.509619099 113.0
30.514542955 103.0
30.519466811 74.0
30.524390667 100.0
30.529314523 106.0
30.534238379 104.0
30.539162235 120.0
30.544086091 107.0
30.549009947 92.0
30.553933803 106.0
30.558857659 100.0
30.563781515 102.0
30.568705371 94.0
30.573629227 109.0
30.578553083 99.0
30.583476939 96.0
30.588400795 104.0
30.593324651 113.0
30.598248507 104.0
30.603172363 81.0
30.608096219 105.0
30.613020075 104.0
30.617943931 110.0
30.622867787 91.0
30.627791643 101.0
30.632715499 99.0
30.637639355 104.0
30.642563211 89.0
30.647487067 90.0
30.652410923 95.0
30.657334779 82.0
30.662258635 115.0
30.667182491 93.0
30.672106347 99.0
30.677030203 100.0
30.681954059 113.0
30.686877915 99.0
30.691801771 94.0
30.696725627 120.0
30.701649483 103.0
30.706573339 110.0
30.711497195 114.0
30.716421051 96.0
30.721344907 103.0
30.726268763 98.0
30.731192619 98.0
30.736116475 100.0
30.741040331 97.0
30.745964187 99.0
30.750888043 103.0
30.755811900 117.0
30.760735756 119.0
30.765659612 129.0
30.770583468 109.0
30.775507324 126.0
30.780431180 112.0
30.785355036 106.0
30.790278892 87.0
30.795202748 103.0
30.800126604 116.0
30.805050460 104.0
30.809974316 107.0
30.814898172 103.0
30.819822028 112.0
30.824745884 121.0
30.829669740 112.0
30.834593596 114.0
30.839517452 116.0
30.844441308 108.0
30.849365164 111.0
30.854289020 104.0
30.859212876 111.0
30.864136732 118.0
30.869060588 114.0
30.873984444 105.0
30.878908300 107.0
30.883832156 88.0
30.888756012 95.0
30.893679868 97.0
30.898603724 96.0
30.903527580 82.0
30.908451436 105.0
30.913375292 108.0
30.918299148 111.0
30.923223004 104.0
30.928146860 109.0
30.933070716 128.0
30.937994572 109.0
30.942918428 100.0
30.947842284 126.0
30.952766140 114.0
30.957689996 107.0
30.962613852 100.0
30.967537708 102.0
30.972461564 93.0
30.977385420 113.0
30.982309276 110.0
30.987233132 92.0
30.992156988 115.0
30.997080844 89.0
31.002004700 82.0
31.006928556 100.0
31.011852412 100.0
31.016776268 99.0
31.021700124 103.0
31.026623980 91.0
31.031547836 90.0
31.036471692 108.0
31.041395548 101.0
31.046319404 105.0
31.051243260 102.0
31.056167116 98.0
31.061090972 109.0
31.066014828 128.0
31.070938684 99.0
31.075862540 115.0
31.080786396 110.0
31.085710252 124.0
31.090634108 122.0
31.095557964 92.0
31.100481820 102.0
31.105405676 120.0
31.110329532 112.0
31.115253388 126.0
31.120177244 106.0
31.125101100 99.0
31.130024956 113.0
31.134948812 114.0
31.139872668 97.0
31.144796524 116.0
31.149720380 95.0
31.154644236 113.0
31.159568092 105.0
31.164491948 81.0
31.169415804 121.0
31.174339660 105.0
31.179263516 112.0
31.184187372 98.0
31.189111228 109.0
31.194035084 97.0
31.198958940 105.0
31.203882796 107.0
31.208806652 100.0
31.213730508 112.0
31.218654364 107.0
31.223578220 87.0
31.228502076 110.0
31.233425932 105.0
31.238349788 126.0
31.243273644 107.0
31.248197500 98.0
31.253121357 104.0
31.258045213 119.0
31.262969069 108.0
31.267892925 115.0
31.272816781 79.0
31.277740637 94.0
31.282664493 106.0
31.287588349 100.0
31.292512205 108.0
31.297436061 103.0
31.302359917 95.0
31.307283773 105.0
31.312207629 93.0
31.317131485 106.0
31.322055341 100.0
31.326979197 109.0
31.331903053 94.0
31.336826909 101.0
31.341750765 104.0
31.346674621 115.0
31.351598477 111.0
31.356522333 97.0
31.361446189 99.0
31.366370045 119.0
31.371293901 117.0
31.376217757 102.0
31.381141613 104.0
31.386065469 101.0
31.390989325 106.0
31.395913181 113.0
31.400837037 104.0
31.405760893 102.0
31.410684749 102.0
31.415608605 113.0
31.420532461 121.0
31.425456317 108.0
31.430380173 111.0
31.435304029 115.0
31.440227885 102.0
31.445151741 101.0
31.450075597 113.0
31.454999453 109.0
31.459923309 114.0
31.464847165 120.0
31.469771021 113.0
31.474694877 115.0
31.479618733 120.0
31.484542589 100.0
31.489466445 102.0
31.494390301 96.0
31.499314157 112.0
31.504238013 112.0
31.509161869 108.0
31.514085725 106.0
31.519009581 104.0
31.523933437 132.0
31.528857293 111.0
31.533781149 117.0
31.538705005 110.0
31.543628861 100.0
31.548552717 121.0
31.553476573 121.0
31.558400429 110.0
31.563324285 110.0
31.568248141 84.0
31.573171997 110.0
31.578095853 93.0
31.583019709 119.0
31.587943565 93.0
31.592867421 111.0
31.597791277 95.0
31.602715133 107.0
31.607638989 118.0
31.612562845 105.0
31.617486701 111.0
31.622410557 109.0
31.627334413 108.0
31.632258269 107.0
31.637182125 109.0
31.642105981 83.0
31.647029837 128.0
31.651953693 99.0
31.656877549 98.0
31.661801405 116.0
31.666725261 97.0
31.671649117 102.0
31.676572973 96.0
31.681496829 99.0
31.686420685 103.0
31.691344541 128.0
31.696268397 123.0
31.701192253 120.0
31.706116109 114.0
31.711039965 109.0
31.715963821 113.0
31.720887677 96.0
31.725811533 104.0
31.730735389 118.0
31.735659245 134.0
31.740583101 104.0
31.745506957 98.0
31.750430813 112.0
31.755354670 103.0
31.760278526 124.0
31.765202382 97.0
31.770126238 99.0
31.775050094 142.0
31.779973950 120.0
31.784897806 120.0
31.789821662 104.0
31.794745518 99.0
31.799669374 117.0
31.804593230 121.0
31.809517086 123.0
31.814440942 100.0
31.819364798 122.0
31.824288654 148.0
31.829212510 126.0
31.834136366 110.0
31.839060222 130.0
31.843984078 117.0
31.848907934 113.0
31.853831790 120.0
31.858755646 117.0
31.863679502 113.0
31.868603358 129.0
31.873527214 117.0
31.878451070 126.0
31.883374926 128.0
31.888298782 144.0
31.893222638 124.0
31.898146494 133.0
31.903070350 113.0
31.907994206 135.0
31.912918062 120.0
31.917841918 162.0
31.922765774 166.0
31.927689630 156.0
31.932613486 188.0
31.937537342 158.0
31.942461198 180.0
31.947385054 173.0
31.952308910 172.0
31.957232766 160.0
31.962156622 201.0
31.967080478 182.0
31.972004334 205.0
31.976928190 183.0
31.981852046 176.0
31.986775902 201.0
31.991699758 205.0
31.996623614 202.0
32.001547470 179.0
32.006471326 203.0
32.011395182 182.0
32.016319038 218.0
32.021242894 181.0
32.026166750 213.0
32.031090606 176.0
32.036014462 185.0
32.040938318 186.0
32.045862174 172.0
32.050786030 155.0
32.055709886 184.0
32.060633742 143.0
32.065557598 169.0
32.070481454 167.0
32.075405310 137.0
32.080329166 145.0
32.085253022 147.0
32.090176878 153.0
32.095100734 141.0
32.100024590 138.0
32.104948446 141.0
32.109872302 133.0
32.114796158 126.0
32.119720014 129.0
32.124643870 137.0
32.129567726 134.0
32.134491582 135.0
32.139415438 130.0
32.144339294 102.0
32.149263150 116.0
32.154187006 136.0
32.159110862 118.0
32.164034718 140.0
32.168958574 126.0
32.173882430 129.0
32.178806286 101.0
32.183730142 137.0
32.188653998 113.0
32.193577854 125.0
32.198501710 102.0
32.203425566 120.0
32.208349422 116.0
32.213273278 99.0
32.218197134 112.0
32.223120990 108.0
32.228044846 111.0
32.232968702 119.0
32.237892558 135.0
32.242816414 102.0
32.247740270 123.0
32.252664127 108.0
32.257587983 123.0
32.262511839 140.0
32.267435695 115.0
32.272359551 126.0
32.277283407 118.0
32.282207263 118.0
32.287131119 131.0
32.292054975 114.0
32.296978831 124.0
32.301902687 117.0
32.306826543 102.0
32.311750399 115.0
32.316674255 104.0
32.321598111 89.0
32.326521967 115.0
32.331445823 113.0
32.336369679 109.0
32.341293535 120.0
32.346217391 113.0
32.351141247 103.0
32.356065103 131.0
32.360988959 102.0
32.365912815 100.0
32.370836671 97.0
32.375760527 115.0
32.380684383 99.0
32.385608239 116.0
32.390532095 119.0
32.395455951 146.0
32.400379807 123.0
32.405303663 121.0
32.410227519 105.0
32.415151375 104.0
32.420075231 109.0
32.424999087 110.0
32.429922943 112.0
32.434846799 118.0
32.439770655 121.0
32.444694511 101.0
32.449618367 129.0
32.454542223 111.0
32.459466079 109.0
32.464389935 100.0
32.469313791 90.0
32.474237647 114.0
32.479161503 94.0
32.484085359 94.0
32.489009215 110.0
32.493933071 122.0
32.498856927 122.0
32.503780783 116.0
32.508704639 94.0
32.513628495 92.0
32.518552351 116.0
32.523476207 128.0
32.528400063 114.0
32.533323919 100.0
32.538247775 99.0
32.543171631 101.0
32.548095487 92.0
32.553019343 114.0
32.557943199 90.0
32.562867055 106.0
32.567790911 108.0
32.572714767 108.0
32.577638623 111.0
32.582562479 131.0
32.587486335 106.0
32.592410191 111.0
32.597334047 117.0
32.602257903 115.0
32.607181759 125.0
32.612105615 119.0
32.617029471 90.0
32.621953327 117.0
32.626877183 97.0
32.631801039 97.0
32.636724895 112.0
32.641648751 118.0
32.646572607 93.0
32.651496463 123.0
32.656420319 119.0
32.661344175 109.0
32.666268031 120.0
32.671191887 115.0
32.676115743 106.0
32.681039599 103.0
32.685963455 93.0
32.690887311 125.0
32.695811167 130.0
32.700735023 92.0
32.705658879 112.0
32.710582735 108.0
32.715506591 93.0
32.720430447 108.0
32.725354303 103.0
32.730278159 118.0
32.735202015 124.0
32.740125871 110.0
32.745049727 107.0
32.749973583 122.0
32.754897440 128.0
32.759821296 114.0
32.764745152 115.0
32.769669008 131.0
32.774592864 107.0
32.779516720 106.0
32.784440576 119.0
32.789364432 99.0
32.794288288 115.0
32.799212144 108.0
32.804136000 91.0
32.809059856 108.0
32.813983712 96.0
32.818907568 113.0
32.823831424 120.0
32.828755280 106.0
32.833679136 113.0
32.838602992 113.0
32.843526848 117.0
32.848450704 123.0
32.853374560 109.0
32.858298416 102.0
32.863222272 108.0
32.868146128 116.0
32.873069984 112.0
32.877993840 114.0
32.882917696 99.0
32.887841552 120.0
32.892765408 103.0
32.897689264 120.0
32.902613120 113.0
32.907536976 135.0
32.912460832 106.0
32.917384688 110.0
32.922308544 107.0
32.927232400 110.0
32.932156256 106.0
32.937080112 113.0
32.942003968 113.0
32.946927824 117.0
32.951851680 97.0
32.956775536 130.0
32.961699392 109.0
32.966623248 94.0
32.971547104 102.0
32.976470960 115.0
32.981394816 103.0
32.986318672 127.0
32.991242528 119.0
32.996166384 91.0
33.001090240 129.0
33.006014096 101.0
33.010937952 100.0
33.015861808 116.0
33.020785664 99.0
33.025709520 121.0
33.030633376 79.0
33.035557232 115.0
33.040481088 125.0
33.045404944 112.0
33.050328800 101.0
33.055252656 98.0
33.060176512 105.0
33.065100368 120.0
33.070024224 108.0
33.074948080 112.0
33.079871936 125.0
33.084795792 93.0
33.089719648 97.0
33.094643504 97.0
33.099567360 89.0
33.104491216 111.0
33.109415072 118.0
33.114338928 118.0
33.119262784 113.0
33.124186640 106.0
33.129110496 90.0
33.134034352 115.0
33.138958208 124.0
33.143882064 117.0
33.148805920 118.0
33.153729776 126.0
33.158653632 95.0
33.163577488 105.0
33.168501344 109.0
33.173425200 112.0
33.178349056 115.0
33.183272912 113.0
33.188196768 92.0
33.193120624 125.0
33.198044480 99.0
33.202968336 112.0
33.207892192 109.0
33.212816048 118.0
33.217739904 115.0
33.222663760 119.0
33.227587616 110.0
33.232511472 109.0
33.237435328 105.0
33.242359184 109.0
33.247283040 106.0
33.252206897 97.0
33.257130753 112.0
33.262054609 119.0
33.266978465 112.0
33.271902321 111.0
33.276826177 113.0
33.281750033 116.0
33.286673889 125.0
33.291597745 116.0
33.296521601 97.0
33.301445457 98.0
33.306369313 90.0
33.311293169 95.0
33.316217025 113.0
33.321140881 104.0
33.326064737 114.0
33.330988593 128.0
33.335912449 97.0
33.340836305 123.0
33.345760161 112.0
33.350684017 112.0
33.355607873 107.0
33.360531729 118.0
33.365455585 117.0
33.370379441 118.0
33.375303297 109.0
33.380227153 108.0
33.385151009 109.0
33.390074865 99.0
33.394998721 100.0
33.399922577 93.0
33.404846433 114.0
33.409770289 122.0
33.414694145 104.0
33.419618001 93.0
33.424541857 122.0
33.429465713 114.0
33.434389569 116.0
33.439313425 114.0
33.444237281 124.0
33.449161137 113.0
33.454084993 132.0
33.459008849 95.0
33.463932705 115.0
33.468856561 111.0
33.473780417 96.0
33.478704273 108.0
33.483628129 93.0
33.488551985 120.0
33.493475841 100.0
33.498399697 111.0
33.503323553 104.0
33.508247409 117.0
33.513171265 123.0
33.518095121 117.0
33.523018977 112.0
33.527942833 108.0
33.532866689 113.0
33.537790545 117.0
33.542714401 106.0
33.547638257 127.0
33.552562113 118.0
33.557485969 134.0
33.562409825 119.0
33.567333681 116.0
33.572257537 121.0
33.577181393 115.0
33.582105249 125.0
33.587029105 120.0
33.591952961 118.0
33.596876817 105.0
33.601800673 115.0
33.606724529 124.0
33.611648385 107.0
33.616572241 124.0
33.621496097 120.0
33.626419953 138.0
33.631343809 116.0
33.636267665 122.0
33.641191521 124.0
33.646115377 124.0
33.651039233 123.0
33.655963089 121.0
33.660886945 131.0
33.665810801 110.0
33.670734657 130.0
33.675658513 115.0
33.680582369 136.0
33.685506225 125.0
33.690430081 124.0
33.695353937 115.0
33.700277793 157.0
33.705201649 129.0
33.710125505 141.0
33.715049361 122.0
33.719973217 146.0
33.724897073 135.0
33.729820929 140.0
33.734744785 130.0
33.739668641 126.0
33.744592497 135.0
33.749516353 142.0
33.754440210 147.0
33.759364066 135.0
33.764287922 134.0
33.769211778 138.0
33.774135634 127.0
33.779059490 129.0
33.783983346 143.0
33.788907202 134.0
33.793831058 141.0
33.798754914 125.0
33.803678770 120.0
33.808602626 131.0
33.813526482 144.0
33.818450338 153.0
33.823374194 134.0
33.828298050 148.0
33.833221906 137.0
33.838145762 146.0
33.843069618 185.0
33.847993474 154.0
33.852917330 213.0
33.857841186 182.0
33.862765042 216.0
33.867688898 314.0
33.872612754 341.0
33.877536610 405.0
33.882460466 537.0
33.887384322 675.0
33.892308178 846.0
33.897232034 1039.0
33.902155890 1134.0
33.907079746 1267.0
33.912003602 1272.0
33.916927458 1245.0
33.921851314 1241.0
33.926775170 1223.0
33.931699026 1119.0
33.936622882 983.0
33.941546738 877.0
33.946470594 675.0
33.951394450 542.0
33.956318306 486.0
33.961242162 411.0
33.966166018 336.0
33.971089874 290.0
33.976013730 284.0
33.980937586 260.0
33.985861442 264.0
33.990785298 215.0
33.995709154 199.0
34.000633010 205.0
34.005556866 187.0
34.010480722 211.0
34.015404578 184.0
34.020328434 175.0
34.025252290 156.0
34.030176146 160.0
34.035100002 177.0
34.040023858 175.0
34.044947714 159.0
34.049871570 167.0
34.054795426 183.0
34.059719282 155.0
34.064643138 151.0
34.069566994 170.0
34.074490850 145.0
34.079414706 148.0
34.084338562 150.0
34.089262418 143.0
34.094186274 145.0
34.099110130 160.0
34.104033986 165.0
34.108957842 152.0
34.113881698 143.0
34.118805554 160.0
34.123729410 150.0
34.128653266 162.0
34.133577122 143.0
34.138500978 171.0
34.143424834 156.0
34.148348690 150.0
34.153272546 161.0
34.158196402 151.0
34.163120258 151.0
34.168044114 181.0
34.172967970 174.0
34.177891826 187.0
34.182815682 158.0
34.187739538 157.0
34.192663394 183.0
34.197587250 160.0
34.202511106 165.0
34.207434962 141.0
34.212358818 144.0
34.217282674 147.0
34.222206530 150.0
34.227130386 159.0
34.232054242 143.0
34.236978098 139.0
34.241901954 161.0
34.246825810 182.0
34.251749667 124.0
34.256673523 167.0
34.261597379 168.0
34.266521235 162.0
34.271445091 147.0
34.276368947 180.0
34.281292803 168.0
34.286216659 158.0
34.291140515 158.0
34.296064371 171.0
34.300988227 156.0
34.305912083 154.0
34.310835939 174.0
34.315759795 166.0
34.320683651 166.0
34.325607507 147.0
34.330531363 172.0
34.335455219 159.0
34.340379075 158.0
34.345302931 141.0
34.350226787 140.0
34.355150643 175.0
34.360074499 162.0
34.364998355 165.0
34.369922211 169.0
34.374846067 181.0
34.379769923 157.0
34.384693779 152.0
34.389617635 155.0
34.394541491 145.0
34.399465347 183.0
34.404389203 186.0
34.409313059 166.0
34.414236915 180.0
34.419160771 154.0
34.424084627 162.0
34.429008483 164.0
34.433932339 143.0
34.438856195 182.0
34.443780051 154.0
34.448703907 183.0
34.453627763 174.0
34.458551619 177.0
34.463475475 160.0
34.468399331 210.0
34.473323187 197.0
34.478247043 175.0
34.483170899 159.0
34.488094755 194.0
34.493018611 193.0
34.497942467 191.0
34.502866323 194.0
34.507790179 198.0
34.512714035 183.0
34.517637891 176.0
34.522561747 183.0
34.527485603 192.0
34.532409459 204.0
34.537333315 187.0
34.542257171 200.0
34.547181027 180.0
34.552104883 188.0
34.557028739 222.0
34.561952595 205.0
34.566876451 212.0
34.571800307 212.0
34.576724163 202.0
34.581648019 215.0
34.586571875 223.0
34.591495731 204.0
34.596419587 216.0
34.601343443 214.0
34.606267299 221.0
34.611191155 227.0
34.616115011 211.0
34.621038867 219.0
34.625962723 220.0
34.630886579 183.0
34.635810435 208.0
34.640734291 221.0
34.645658147 213.0
34.650582003 243.0
34.655505859 217.0
34.660429715 221.0
34.665353571 233.0
34.670277427 233.0
34.675201283 218.0
34.680125139 247.0
34.685048995 210.0
34.689972851 203.0
34.694896707 205.0
34.699820563 232.0
34.704744419 243.0
34.709668275 228.0
34.714592131 225.0
34.719515987 214.0
34.724439843 228.0
34.729363699 229.0
34.734287555 246.0
34.739211411 241.0
34.744135267 264.0
34.749059123 243.0
34.753982980 274.0
34.758906836 278.0
34.763830692 297.0
34.768754548 282.0
34.773678404 264.0
34.778602260 287.0
34.783526116 281.0
34.788449972 280.0
34.793373828 277.0
34.798297684 268.0
34.803221540 294.0
34.808145396 270.0
34.813069252 283.0
34.817993108 329.0
34.822916964 269.0
34.827840820 292.0
34.832764676 294.0
34.837688532 287.0
34.842612388 275.0
34.847536244 317.0
34.852460100 281.0
34.857383956 298.0
34.862307812 308.0
34.867231668 318.0
34.872155524 328.0
34.877079380 298.0
34.882003236 324.0
34.886927092 313.0
34.891850948 319.0
34.896774804 312.0
34.901698660 303.0
34.906622516 314.0
34.911546372 345.0
34.916470228 342.0
34.921394084 329.0
34.926317940 316.0
34.931241796 319.0
34.936165652 339.0
34.941089508 374.0
34.946013364 350.0
34.950937220 337.0
34.955861076 348.0
34.960784932 373.0
34.965708788 399.0
34.970632644 379.0
34.975556500 409.0
34.980480356 368.0
34.985404212 406.0
34.990328068 406.0
34.995251924 396.0
35.000175780 400.0
35.005099636 431.0
35.010023492 397.0
35.014947348 412.0
35.019871204 414.0
35.024795060 408.0
35.029718916 414.0
35.034642772 459.0
35.039566628 447.0
35.044490484 452.0
35.049414340 468.0
35.054338196 415.0
35.059262052 461.0
35.064185908 463.0
35.069109764 470.0
35.074033620 464.0
35.078957476 487.0
35.083881332 476.0
35.088805188 485.0
35.093729044 516.0
35.098652900 484.0
35.103576756 577.0
35.108500612 545.0
35.113424468 511.0
35.118348324 556.0
35.123272180 580.0
35.128196036 561.0
35.133119892 584.0
35.138043748 559.0
35.142967604 639.0
35.147891460 618.0
35.152815316 676.0
35.157739172 631.0
35.162663028 651.0
35.167586884 627.0
35.172510740 681.0
35.177434596 697.0
35.182358452 727.0
35.187282308 688.0
35.192206164 785.0
35.197130020 779.0
35.202053876 753.0
35.206977732 808.0
35.211901588 813.0
35.216825444 851.0
35.221749300 920.0
35.226673156 883.0
35.231597012 958.0
35.236520868 982.0
35.241444724 1034.0
35.246368580 1007.0
35.251292437 988.0
35.256216293 1027.0
35.261140149 1150.0
35.266064005 1164.0
35.270987861 1174.0
35.275911717 1241.0
35.280835573 1278.0
35.285759429 1322.0
35.290683285 1473.0
35.295607141 1436.0
35.300530997 1541.0
35.305454853 1584.0
35.310378709 1700.0
35.315302565 1784.0
35.320226421 1800.0
35.325150277 2023.0
35.330074133 2038.0
35.334997989 2175.0
35.339921845 2289.0
35.344845701 2409.0
35.349769557 2555.0
35.354693413 2667.0
35.359617269 2876.0
35.364541125 3080.0
35.369464981 3288.0
35.374388837 3394.0
35.379312693 3693.0
35.384236549 3917.0
35.389160405 4316.0
35.394084261 4609.0
35.399008117 4863.0
35.403931973 5386.0
35.408855829 5662.0
35.413779685 6033.0
35.418703541 6699.0
35.423627397 7316.0
35.428551253 7951.0
35.433475109 8581.0
35.438398965 9183.0
35.443322821 10199.0
35.448246677 11237.0
35.453170533 12252.0
35.458094389 13071.0
35.463018245 14239.0
35.467942101 15419.0
35.472865957 16391.0
35.477789813 17705.0
35.482713669 18871.0
35.487637525 19800.0
35.492561381 20739.0
35.497485237 21785.0
35.502409093 22442.0
35.507332949 23291.0
35.512256805 23814.0
35.517180661 24444.0
35.522104517 24833.0
35.527028373 24645.0
35.531952229 25046.0
35.536876085 24714.0
35.541799941 24582.0
35.546723797 24338.0
35.551647653 23849.0
35.556571509 23893.0
35.561495365 23349.0
35.566419221 23046.0
35.571343077 22429.0
35.576266933 22427.0
35.581190789 21903.0
35.586114645 21601.0
35.591038501 21062.0
35.595962357 20833.0
35.600886213 20016.0
35.605810069 19685.0
35.610733925 19362.0
35.615657781 18409.0
35.620581637 18151.0
35.625505493 17389.0
35.630429349 16634.0
35.635353205 16154.0
35.640277061 15271.0
35.645200917 14711.0
35.650124773 14056.0
35.655048629 13318.0
35.659972485 12244.0
35.664896341 11719.0
35.669820197 11063.0
35.674744053 10586.0
35.679667909 9725.0
35.684591765 9398.0
35.689515621 8678.0
35.694439477 8415.0
35.699363333 7832.0
35.704287189 7436.0
35.709211045 7274.0
35.714134901 6763.0
35.719058757 6438.0
35.723982613 6152.0
35.728906469 5840.0
35.733830325 5473.0
35.738754181 5316.0
35.743678037 5131.0
35.748601893 4831.0
35.753525750 4707.0
35.758449606 4470.0
35.763373462 4181.0
35.768297318 4184.0
35.773221174 4028.0
35.778145030 3870.0
35.783068886 3697.0
35.787992742 3514.0
35.792916598 3564.0
35.797840454 3309.0
35.802764310 3298.0
35.807688166 3146.0
35.812612022 2999.0
35.817535878 2917.0
35.822459734 2963.0
35.827383590 2851.0
35.832307446 2639.0
35.837231302 2681.0
35.842155158 2619.0
35.847079014 2525.0
35.852002870 2419.0
35.856926726 2319.0
35.861850582 2281.0
35.866774438 2208.0
35.871698294 2258.0
35.876622150 2193.0
35.881546006 2084.0
35.886469862 2004.0
35.891393718 1966.0
35.896317574 1982.0
35.901241430 2005.0
35.906165286 1935.0
35.911089142 1853.0
35.916012998 1817.0
35.920936854 1760.0
35.925860710 1717.0
35.930784566 1742.0
35.935708422 1629.0
35.940632278 1630.0
35.945556134 1611.0
35.950479990 1612.0
35.955403846 1558.0
35.960327702 1414.0
35.965251558 1462.0
35.970175414 1425.0
35.975099270 1419.0
35.980023126 1409.0
35.984946982 1329.0
35.989870838 1359.0
35.994794694 1344.0
35.999718550 1207.0
36.004642406 1288.0
36.009566262 1263.0
36.014490118 1240.0
36.019413974 1276.0
36.024337830 1233.0
36.029261686 1205.0
36.034185542 1071.0
36.039109398 1129.0
36.044033254 1143.0
36.048957110 1107.0
36.053880966 1096.0
36.058804822 1083.0
36.063728678 1042.0
36.068652534 1058.0
36.073576390 984.0
36.078500246 1019.0
36.083424102 979.0
36.088347958 931.0
36.093271814 917.0
36.098195670 946.0
36.103119526 894.0
36.108043382 890.0
36.112967238 853.0
36.117891094 885.0
36.122814950 804.0
36.127738806 795.0
36.132662662 803.0
36.137586518 830.0
36.142510374 796.0
36.147434230 788.0
36.152358086 774.0
36.157281942 719.0
36.162205798 742.0
36.167129654 774.0
36.172053510 726.0
36.176977366 756.0
36.181901222 686.0
36.186825078 695.0
36.191748934 688.0
36.196672790 697.0
36.201596646 683.0
36.206520502 596.0
36.211444358 657.0
36.216368214 683.0
36.221292070 605.0
36.226215926 652.0
36.231139782 622.0
36.236063638 584.0
36.240987494 566.0
36.245911350 564.0
36.250835207 576.0
36.255759063 597.0
36.260682919 619.0
36.265606775 552.0
36.270530631 562.0
36.275454487 517.0
36.280378343 535.0
36.285302199 512.0
36.290226055 560.0
36.295149911 538.0
36.300073767 519.0
36.304997623 538.0
36.309921479 502.0
36.314845335 494.0
36.319769191 508.0
36.324693047 511.0
36.329616903 498.0
36.334540759 461.0
36.339464615 506.0
36.344388471 498.0
36.349312327 497.0
36.354236183 465.0
36.359160039 502.0
36.364083895 452.0
36.369007751 421.0
36.373931607 440.0
36.378855463 384.0
36.383779319 448.0
36.388703175 446.0
36.393627031 412.0
36.398550887 398.0
36.403474743 458.0
36.408398599 451.0
36.413322455 399.0
36.418246311 434.0
36.423170167 375.0
36.428094023 417.0
36.433017879 377.0
36.437941735 394.0
36.442865591 427.0
36.447789447 392.0
36.452713303 356.0
36.457637159 389.0
36.462561015 421.0
36.467484871 416.0
36.472408727 393.0
36.477332583 364.0
36.482256439 417.0
36.487180295 395.0
36.492104151 339.0
36.497028007 356.0
36.501951863 358.0
36.506875719 361.0
36.511799575 347.0
36.516723431 332.0
36.521647287 377.0
36.526571143 378.0
36.531494999 355.0
36.536418855 353.0
36.541342711 315.0
36.546266567 377.0
36.551190423 342.0
36.556114279 395.0
36.561038135 371.0
36.565961991 353.0
36.570885847 358.0
36.575809703 333.0
36.580733559 318.0
36.585657415 368.0
36.590581271 351.0
36.595505127 354.0
36.600428983 319.0
36.605352839 347.0
36.610276695 376.0
36.615200551 349.0
36.620124407 365.0
36.625048263 347.0
36.629972119 371.0
36.634895975 344.0
36.639819831 338.0
36.644743687 344.0
36.649667543 384.0
36.654591399 347.0
36.659515255 324.0
36.664439111 321.0
36.669362967 358.0
36.674286823 373.0
36.679210679 356.0
36.684134535 317.0
36.689058391 348.0
36.693982247 371.0
36.698906103 352.0
36.703829959 334.0
36.708753815 353.0
36.713677671 351.0
36.718601527 329.0
36.723525383 311.0
36.728449239 359.0
36.733373095 335.0
36.738296951 357.0
36.743220807 307.0
36.748144663 334.0
36.753068520 353.0
36.757992376 358.0
36.762916232 363.0
36.767840088 343.0
36.772763944 351.0
36.777687800 355.0
36.782611656 355.0
36.787535512 344.0
36.792459368 370.0
36.797383224 385.0
36.802307080 376.0
36.807230936 339.0
36.812154792 353.0
36.817078648 387.0
36.822002504 382.0
36.826926360 364.0
36.831850216 356.0
36.836774072 382.0
36.841697928 387.0
36.846621784 375.0
36.851545640 416.0
36.856469496 386.0
36.861393352 382.0
36.866317208 380.0
36.871241064 397.0
36.876164920 373.0
36.881088776 410.0
36.886012632 420.0
36.890936488 378.0
36.895860344 371.0
36.900784200 400.0
36.905708056 390.0
36.910631912 410.0
36.915555768 393.0
36.920479624 436.0
36.925403480 398.0
36.930327336 389.0
36.935251192 392.0
36.940175048 435.0
36.945098904 431.0
36.950022760 421.0
36.954946616 442.0
36.959870472 412.0
36.964794328 457.0
36.969718184 431.0
36.974642040 420.0
36.979565896 406.0
36.984489752 425.0
36.989413608 449.0
36.994337464 434.0
36.999261320 415.0
37.004185176 454.0
37.009109032 451.0
37.014032888 455.0
37.018956744 473.0
37.023880600 444.0
37.028804456 474.0
37.033728312 470.0
37.038652168 453.0
37.043576024 473.0
37.048499880 455.0
37.053423736 481.0
37.058347592 451.0
37.063271448 488.0
37.068195304 534.0
37.073119160 495.0
37.078043016 499.0
37.082966872 458.0
37.087890728 500.0
37.092814584 486.0
37.097738440 468.0
37.102662296 533.0
37.107586152 517.0
37.112510008 525.0
37.117433864 512.0
37.122357720 522.0
37.127281576 543.0
37.132205432 581.0
37.137129288 519.0
37.142053144 572.0
37.146977000 588.0
37.151900856 539.0
37.156824712 545.0
37.161748568 515.0
37.166672424 583.0
37.171596280 541.0
37.176520136 583.0
37.181443992 567.0
37.186367848 589.0
37.191291704 496.0
37.196215560 597.0
37.201139416 597.0
37.206063272 622.0
37.210987128 612.0
37.215910984 599.0
37.220834840 661.0
37.225758696 655.0
37.230682552 628.0
37.235606408 599.0
37.240530264 662.0
37.245454120 647.0
37.250377977 688.0
37.255301833 720.0
37.260225689 676.0
37.265149545 725.0
37.270073401 695.0
37.274997257 788.0
37.279921113 700.0
37.284844969 758.0
37.289768825 771.0
37.294692681 820.0
37.299616537 788.0
37.304540393 802.0
37.309464249 819.0
37.314388105 802.0
37.319311961 804.0
37.324235817 777.0
37.329159673 898.0
37.334083529 829.0
37.339007385 917.0
37.343931241 846.0
37.348855097 916.0
37.353778953 894.0
37.358702809 919.0
37.363626665 1001.0
37.368550521 885.0
37.373474377 1020.0
37.378398233 994.0
37.383322089 1101.0
37.388245945 962.0
37.393169801 1074.0
37.398093657 1040.0
37.403017513 1094.0
37.407941369 1194.0
37.412865225 1152.0
37.417789081 1161.0
37.422712937 1260.0
37.427636793 1286.0
37.432560649 1422.0
37.437484505 1451.0
37.442408361 1607.0
37.447332217 1633.0
37.452256073 1915.0
37.457179929 1892.0
37.462103785 2044.0
37.467027641 2206.0
37.471951497 2558.0
37.476875353 2723.0
37.481799209 2881.0
37.486723065 3194.0
37.491646921 3244.0
37.496570777 3602.0
37.501494633 3566.0
37.506418489 3977.0
37.511342345 3733.0
37.516266201 3943.0
37.521190057 3871.0
37.526113913 4044.0
37.531037769 3773.0
37.535961625 3938.0
37.540885481 3887.0
37.545809337 3976.0
37.550733193 3913.0
37.555657049 4313.0
37.560580905 4101.0
37.565504761 4422.0
37.570428617 4685.0
37.575352473 5127.0
37.580276329 5278.0
37.585200185 6281.0
37.590124041 6547.0
37.595047897 7950.0
37.599971753 8415.0
37.604895609 10575.0
37.609819465 11416.0
37.614743321 15550.0
37.619667177 17579.0
37.624591033 25439.0
37.629514889 30610.0
37.634438745 54116.0
37.639362601 74195.0
37.644286457 134499.0
37.649210313 182121.0
37.654134169 222962.0
37.659058025 251320.0
37.663981881 263948.0
37.668905737 274981.0
37.673829593 272908.0
37.678753449 277413.0
37.683677305 264005.0
37.688601161 256688.0
37.693525017 204514.0
37.698448873 162203.0
37.703372729 106456.0
37.708296585 68512.0
37.713220441 51622.0
37.718144297 37304.0
37.723068153 35133.0
37.727992009 33287.0
37.732915865 43799.0
37.737839721 53017.0
37.742763577 84362.0
37.747687433 98155.0
37.752611290 124067.0
37.757535146 132170.0
37.762459002 141180.0
37.767382858 142620.0
37.772306714 144097.0
37.777230570 141298.0
37.782154426 135383.0
37.787078282 126360.0
37.792002138 98754.0
37.796925994 83046.0
37.801849850 49928.0
37.806773706 37308.0
37.811697562 23736.0
37.816621418 17614.0
37.821545274 13518.0
37.826469130 10693.0
37.831392986 9148.0
37.836316842 7634.0
37.841240698 6793.0
37.846164554 5809.0
37.851088410 5473.0
37.856012266 4936.0
37.860936122 4635.0
37.865859978 4075.0
37.870783834 3927.0
37.875707690 3599.0
37.880631546 3468.0
37.885555402 3236.0
37.890479258 3191.0
37.895403114 2834.0
37.900326970 2817.0
37.905250826 2623.0
37.910174682 2498.0
37.915098538 2315.0
37.920022394 2409.0
37.924946250 2222.0
37.929870106 2180.0
37.934793962 2059.0
37.939717818 1979.0
37.944641674 1905.0
37.949565530 1901.0
37.954489386 1758.0
37.959413242 1780.0
37.964337098 1734.0
37.969260954 1556.0
37.974184810 1548.0
37.979108666 1599.0
37.984032522 1452.0
37.988956378 1430.0
37.993880234 1437.0
37.998804090 1419.0
38.003727946 1330.0
38.008651802 1353.0
38.013575658 1255.0
38.018499514 1291.0
38.023423370 1240.0
38.028347226 1244.0
38.033271082 1167.0
38.038194938 1160.0
38.043118794 1150.0
38.048042650 1168.0
38.052966506 1078.0
38.057890362 1079.0
38.062814218 1025.0
38.067738074 1068.0
38.072661930 1048.0
38.077585786 1062.0
38.082509642 1010.0
38.087433498 1018.0
38.092357354 969.0
38.097281210 984.0
38.102205066 923.0
38.107128922 929.0
38.112052778 954.0
38.116976634 897.0
38.121900490 901.0
38.126824346 810.0
38.131748202 846.0
38.136672058 853.0
38.141595914 804.0
38.146519770 834.0
38.151443626 795.0
38.156367482 831.0
38.161291338 777.0
38.166215194 790.0
38.171139050 756.0
38.176062906 749.0
38.180986762 713.0
38.185910618 730.0
38.190834474 744.0
38.195758330 735.0
38.200682186 691.0
38.205606042 719.0
38.210529898 692.0
38.215453754 669.0
38.220377610 669.0
38.225301466 623.0
38.230225322 584.0
38.235149178 583.0
38.240073034 615.0
38.244996890 608.0
38.249920747 606.0
38.254844603 586.0
38.259768459 582.0
38.264692315 610.0
38.269616171 571.0
38.274540027 571.0
38.279463883 584.0
38.284387739 554.0
38.289311595 570.0
38.294235451 508.0
38.299159307 511.0
38.304083163 501.0
38.309007019 526.0
38.313930875 477.0
38.318854731 495.0
38.323778587 501.0
38.328702443 534.0
38.333626299 497.0
38.338550155 506.0
38.343474011 510.0
38.348397867 504.0
38.353321723 472.0
38.358245579 485.0
38.363169435 423.0
38.368093291 450.0
38.373017147 471.0
38.377941003 448.0
38.382864859 458.0
38.387788715 463.0
38.392712571 450.0
38.397636427 432.0
38.402560283 425.0
38.407484139 380.0
38.412407995 402.0
38.417331851 374.0
38.422255707 420.0
38.427179563 338.0
38.432103419 412.0
38.437027275 384.0
38.441951131 378.0
38.446874987 356.0
38.451798843 348.0
38.456722699 380.0
38.461646555 369.0
38.466570411 370.0
38.471494267 390.0
38.476418123 390.0
38.481341979 343.0
38.486265835 385.0
38.491189691 365.0
38.496113547 325.0
38.501037403 346.0
38.505961259 316.0
38.510885115 346.0
38.515808971 304.0
38.520732827 312.0
38.525656683 305.0
38.530580539 316.0
38.535504395 307.0
38.540428251 315.0
38.545352107 317.0
38.550275963 305.0
38.555199819 303.0
38.560123675 304.0
38.565047531 316.0
38.569971387 297.0
38.574895243 292.0
38.579819099 290.0
38.584742955 280.0
38.589666811 287.0
38.594590667 317.0
38.599514523 289.0
38.604438379 257.0
38.609362235 293.0
38.614286091 256.0
38.619209947 276.0
38.624133803 264.0
38.629057659 255.0
38.633981515 229.0
38.638905371 221.0
38.643829227 267.0
38.648753083 220.0
38.653676939 259.0
38.658600795 260.0
38.663524651 204.0
38.668448507 210.0
38.673372363 205.0
38.678296219 234.0
38.683220075 219.0
38.688143931 208.0
38.693067787 211.0
38.697991643 233.0
38.702915499 210.0
38.707839355 222.0
38.712763211 209.0
38.717687067 204.0
38.722610923 178.0
38.727534779 212.0
38.732458635 193.0
38.737382491 207.0
38.742306347 192.0
38.747230203 199.0
38.752154060 198.0
38.757077916 183.0
38.762001772 191.0
38.766925628 210.0
38.771849484 189.0
38.776773340 176.0
38.781697196 196.0
38.786621052 180.0
38.791544908 187.0
38.796468764 172.0
38.801392620 173.0
38.806316476 212.0
38.811240332 182.0
38.816164188 161.0
38.821088044 185.0
38.826011900 162.0
38.830935756 177.0
38.835859612 153.0
38.840783468 170.0
38.845707324 193.0
38.850631180 168.0
38.855555036 168.0
38.860478892 165.0
38.865402748 200.0
38.870326604 163.0
38.875250460 182.0
38.880174316 156.0
38.885098172 148.0
38.890022028 158.0
38.894945884 169.0
38.899869740 173.0
38.904793596 152.0
38.909717452 170.0
38.914641308 160.0
38.919565164 172.0
38.924489020 177.0
38.929412876 145.0
38.934336732 168.0
38.939260588 185.0
38.944184444 189.0
38.949108300 151.0
38.954032156 163.0
38.958956012 165.0
38.963879868 160.0
38.968803724 170.0
38.973727580 161.0
38.978651436 160.0
38.983575292 160.0
38.988499148 147.0
38.993423004 154.0
38.998346860 142.0
39.003270716 165.0
39.008194572 154.0
39.013118428 160.0
39.018042284 153.0
39.022966140 157.0
39.027889996 148.0
39.032813852 135.0
39.037737708 142.0
39.042661564 161.0
39.047585420 148.0
39.052509276 156.0
39.057433132 139.0
39.062356988 108.0
39.067280844 137.0
39.072204700 166.0
39.077128556 138.0
39.082052412 151.0
39.086976268 141.0
39.091900124 152.0
39.096823980 146.0
39.101747836 149.0
39.106671692 142.0
39.111595548 114.0
39.116519404 157.0
39.121443260 139.0
39.126367116 151.0
39.131290972 147.0
39.136214828 125.0
39.141138684 122.0
39.146062540 141.0
39.150986396 152.0
39.155910252 173.0
39.160834108 149.0
39.165757964 128.0
39.170681820 150.0
39.175605676 147.0
39.180529532 159.0
39.185453388 142.0
39.190377244 145.0
39.195301100 143.0
39.200224956 140.0
39.205148812 139.0
39.210072668 146.0
39.214996524 146.0
39.219920380 155.0
39.224844236 139.0
39.229768092 139.0
39.234691948 143.0
39.239615804 129.0
39.244539660 148.0
39.249463517 135.0
39.254387373 127.0
39.259311229 136.0
39.264235085 139.0
39.269158941 125.0
39.274082797 136.0
39.279006653 135.0
39.283930509 142.0
39.288854365 143.0
39.293778221 139.0
39.298702077 119.0
39.303625933 152.0
39.308549789 112.0
39.313473645 134.0
39.318397501 108.0
39.323321357 129.0
39.328245213 143.0
39.333169069 129.0
39.338092925 136.0
39.343016781 118.0
39.347940637 140.0
39.352864493 122.0
39.357788349 114.0
39.362712205 134.0
39.367636061 134.0
39.372559917 156.0
39.377483773 129.0
39.382407629 121.0
39.387331485 137.0
39.392255341 129.0
39.397179197 121.0
39.402103053 146.0
39.407026909 134.0
39.411950765 151.0
39.416874621 137.0
39.421798477 125.0
39.426722333 135.0
39.431646189 137.0
39.436570045 120.0
39.441493901 139.0
39.446417757 118.0
39.451341613 133.0
39.456265469 132.0
39.461189325 122.0
39.466113181 136.0
39.471037037 149.0
39.475960893 133.0
39.480884749 117.0
39.485808605 135.0
39.490732461 134.0
39.495656317 147.0
39.500580173 136.0
39.505504029 130.0
39.510427885 124.0
39.515351741 120.0
39.520275597 117.0
39.525199453 150.0
39.530123309 130.0
39.535047165 114.0
39.539971021 136.0
39.544894877 129.0
39.549818733 123.0
39.554742589 130.0
39.559666445 142.0
39.564590301 117.0
39.569514157 137.0
39.574438013 107.0
39.579361869 140.0
39.584285725 122.0
39.589209581 127.0
39.594133437 105.0
39.599057293 143.0
39.603981149 125.0
39.608905005 120.0
39.613828861 122.0
39.618752717 112.0
39.623676573 113.0
39.628600429 127.0
39.633524285 124.0
39.638448141 121.0
39.643371997 147.0
39.648295853 140.0
39.653219709 111.0
39.658143565 106.0
39.663067421 135.0
39.667991277 112.0
39.672915133 122.0
39.677838989 123.0
39.682762845 131.0
39.687686701 132.0
39.692610557 140.0
39.697534413 139.0
39.702458269 121.0
39.707382125 128.0
39.712305981 135.0
39.717229837 119.0
39.722153693 113.0
39.727077549 140.0
39.732001405 135.0
39.736925261 136.0
39.741849117 118.0
39.746772973 129.0
39.751696830 125.0
39.756620686 122.0
39.761544542 136.0
39.766468398 124.0
39.771392254 111.0
39.776316110 144.0
39.781239966 119.0
39.786163822 122.0
39.791087678 123.0
39.796011534 115.0
39.800935390 144.0
39.805859246 137.0
39.810783102 134.0
39.815706958 125.0
39.820630814 110.0
39.825554670 128.0
39.830478526 126.0
39.835402382 108.0
39.840326238 105.0
39.845250094 123.0
39.850173950 149.0
39.855097806 132.0
39.860021662 119.0
39.864945518 131.0
39.869869374 134.0
39.874793230 107.0
39.879717086 130.0
39.884640942 106.0
39.889564798 125.0
39.894488654 127.0
39.899412510 121.0
39.904336366 135.0
39.909260222 142.0
39.914184078 129.0
39.919107934 110.0
39.924031790 135.0
39.928955646 118.0
39.933879502 106.0
39.938803358 144.0
39.943727214 129.0
39.948651070 130.0
39.953574926 116.0
39.958498782 104.0
39.963422638 131.0
39.968346494 123.0
39.973270350 112.0
39.978194206 120.0
39.983118062 110.0
39.988041918 132.0
39.992965774 115.0
39.997889630 105.0
