45.002461930 104.0
45.007385786 107.0
45.012309642 107.0
45.017233498 110.0
45.022157354 104.0
45.027081210 128.0
45.032005066 127.0
45.036928922 130.0
45.041852778 104.0
45.046776634 110.0
45.051700490 116.0
45.056624346 102.0
45.061548202 127.0
45.066472058 92.0
45.071395914 104.0
45.076319770 98.0
45.081243626 97.0
45.086167482 104.0
45.091091338 118.0
45.096015194 102.0
45.100939050 103.0
45.105862906 109.0
45.110786762 116.0
45.115710618 101.0
45.120634474 145.0
45.125558330 100.0
45.130482186 122.0
45.135406042 110.0
45.140329898 130.0
45.145253754 95.0
45.150177610 115.0
45.155101466 108.0
45.160025322 122.0
45.164949178 104.0
45.169873034 113.0
45.174796890 109.0
45.179720746 100.0
45.184644602 107.0
45.189568458 112.0
45.194492314 106.0
45.199416170 93.0
45.204340026 111.0
45.209263882 123.0
45.214187738 105.0
45.219111594 100.0
45.224035450 112.0
45.228959306 102.0
45.233883162 118.0
45.238807018 130.0
45.243730874 124.0
45.248654730 120.0
45.253578587 91.0
45.258502443 97.0
45.263426299 90.0
45.268350155 106.0
45.273274011 115.0
45.278197867 82.0
45.283121723 105.0
45.288045579 92.0
45.292969435 90.0
45.297893291 99.0
45.302817147 112.0
45.307741003 92.0
45.312664859 102.0
45.317588715 95.0
45.322512571 125.0
45.327436427 102.0
45.332360283 114.0
45.337284139 98.0
45.342207995 100.0
45.347131851 108.0
45.352055707 113.0
45.356979563 89.0
45.361903419 108.0
45.366827275 102.0
45.371751131 104.0
45.376674987 111.0
45.381598843 107.0
45.386522699 106.0
45.391446555 92.0
45.396370411 138.0
45.401294267 105.0
45.406218123 114.0
45.411141979 124.0
45.416065835 95.0
45.420989691 103.0
45.425913547 126.0
45.430837403 113.0
45.435761259 115.0
45.440685115 103.0
45.445608971 78.0
45.450532827 98.0
45.455456683 113.0
45.460380539 106.0
45.465304395 85.0
45.470228251 108.0
45.475152107 112.0
45.480075963 119.0
45.484999819 94.0
45.489923675 111.0
45.494847531 110.0
45.499771387 93.0
45.504695243 96.0
45.509619099 94.0
45.514542955 101.0
45.519466811 96.0
45.524390667 87.0
45.529314523 105.0
45.534238379 112.0
45.539162235 104.0
45.544086091 120.0
45.549009947 103.0
45.553933803 101.0
45.558857659 112.0
45.563781515 102.0
45.568705371 117.0
45.573629227 103.0
45.578553083 103.0
45.583476939 114.0
45.588400795 103.0
45.593324651 106.0
45.598248507 112.0
45.603172363 96.0
45.608096219 109.0
45.613020075 123.0
45.617943931 116.0
45.622867787 99.0
45.627791643 102.0
45.632715499 109.0
45.637639355 118.0
45.642563211 108.0
45.647487067 109.0
45.652410923 118.0
45.657334779 103.0
45.662258635 89.0
45.667182491 117.0
45.672106347 80.0
45.677030203 115.0
45.681954059 103.0
45.686877915 95.0
45.691801771 113.0
45.696725627 111.0
45.701649483 116.0
45.706573339 83.0
45.711497195 104.0
45.716421051 91.0
45.721344907 96.0
45.726268763 104.0
45.731192619 112.0
45.736116475 97.0
45.741040331 104.0
45.745964187 99.0
45.750888043 102.0
45.755811900 120.0
45.760735756 118.0
45.765659612 90.0
45.770583468 90.0
45.775507324 106.0
45.780431180 113.0
45.785355036 108.0
45.790278892 101.0
45.795202748 118.0
45.800126604 103.0
45.805050460 118.0
45.809974316 85.0
45.814898172 99.0
45.819822028 109.0
45.824745884 100.0
45.829669740 108.0
45.834593596 90.0
45.839517452 95.0
45.844441308 99.0
45.849365164 103.0
45.854289020 108.0
45.859212876 104.0
45.864136732 118.0
45.869060588 118.0
45.873984444 103.0
45.878908300 105.0
45.883832156 110.0
45.888756012 108.0
45.893679868 112.0
45.898603724 126.0
45.903527580 99.0
45.908451436 113.0
45.913375292 96.0
45.918299148 120.0
45.923223004 103.0
45.928146860 101.0
45.933070716 109.0
45.937994572 98.0
45.942918428 111.0
45.947842284 104.0
45.952766140 102.0
45.957689996 95.0
45.962613852 93.0
45.967537708 108.0
45.972461564 107.0
45.977385420 106.0
45.982309276 128.0
45.987233132 103.0
45.992156988 83.0
45.997080844 115.0
46.002004700 105.0
46.006928556 94.0
46.011852412 103.0
46.016776268 113.0
46.021700124 97.0
46.026623980 114.0
46.031547836 109.0
46.036471692 105.0
46.041395548 130.0
46.046319404 116.0
46.051243260 111.0
46.056167116 127.0
46.061090972 108.0
46.066014828 110.0
46.070938684 110.0
46.075862540 103.0
46.080786396 95.0
46.085710252 95.0
46.090634108 107.0
46.095557964 98.0
46.100481820 85.0
46.105405676 110.0
46.110329532 119.0
46.115253388 105.0
46.120177244 102.0
46.125101100 118.0
46.130024956 103.0
46.134948812 101.0
46.139872668 110.0
46.144796524 106.0
46.149720380 90.0
46.154644236 89.0
46.159568092 121.0
46.164491948 120.0
46.169415804 106.0
46.174339660 98.0
46.179263516 109.0
46.184187372 75.0
46.189111228 110.0
46.194035084 104.0
46.198958940 109.0
46.203882796 104.0
46.208806652 104.0
46.213730508 105.0
46.218654364 100.0
46.223578220 106.0
46.228502076 107.0
46.233425932 97.0
46.238349788 107.0
46.243273644 84.0
46.248197500 103.0
46.253121357 109.0
46.258045213 107.0
46.262969069 104.0
46.267892925 122.0
46.272816781 93.0
46.277740637 106.0
46.282664493 110.0
46.287588349 94.0
46.292512205 98.0
46.297436061 88.0
46.302359917 110.0
46.307283773 99.0
46.312207629 98.0
46.317131485 98.0
46.322055341 105.0
46.326979197 87.0
46.331903053 107.0
46.336826909 102.0
46.341750765 105.0
46.346674621 118.0
46.351598477 97.0
46.356522333 97.0
46.361446189 110.0
46.366370045 102.0
46.371293901 108.0
46.376217757 94.0
46.381141613 99.0
46.386065469 97.0
46.390989325 106.0
46.395913181 89.0
46.400837037 101.0
46.405760893 112.0
46.410684749 117.0
46.415608605 96.0
46.420532461 101.0
46.425456317 108.0
46.430380173 112.0
46.435304029 94.0
46.440227885 112.0
46.445151741 105.0
46.450075597 103.0
46.454999453 97.0
46.459923309 103.0
46.464847165 105.0
46.469771021 114.0
46.474694877 103.0
46.479618733 110.0
46.484542589 90.0
46.489466445 111.0
46.494390301 99.0
46.499314157 123.0
46.504238013 96.0
46.509161869 88.0
46.514085725 95.0
46.519009581 98.0
46.523933437 122.0
46.528857293 112.0
46.533781149 107.0
46.538705005 108.0
46.543628861 117.0
46.548552717 101.0
46.553476573 108.0
46.558400429 100.0
46.563324285 98.0
46.568248141 129.0
46.573171997 109.0
46.578095853 97.0
46.583019709 130.0
46.587943565 117.0
46.592867421 108.0
46.597791277 129.0
46.602715133 127.0
46.607638989 102.0
46.612562845 121.0
46.617486701 116.0
46.622410557 98.0
46.627334413 112.0
46.632258269 106.0
46.637182125 106.0
46.642105981 104.0
46.647029837 108.0
46.651953693 114.0
46.656877549 104.0
46.661801405 117.0
46.666725261 126.0
46.671649117 128.0
46.676572973 103.0
46.681496829 144.0
46.686420685 104.0
46.691344541 145.0
46.696268397 127.0
46.701192253 128.0
46.706116109 128.0
46.711039965 109.0
46.715963821 106.0
46.720887677 115.0
46.725811533 136.0
46.730735389 108.0
46.735659245 132.0
46.740583101 115.0
46.745506957 103.0
46.750430813 124.0
46.755354670 122.0
46.760278526 135.0
46.765202382 119.0
46.770126238 107.0
46.775050094 114.0
46.779973950 116.0
46.784897806 106.0
46.789821662 103.0
46.794745518 133.0
46.799669374 123.0
46.804593230 113.0
46.809517086 140.0
46.814440942 112.0
46.819364798 119.0
46.824288654 125.0
46.829212510 115.0
46.834136366 113.0
46.839060222 116.0
46.843984078 124.0
46.848907934 123.0
46.853831790 136.0
46.858755646 108.0
46.863679502 106.0
46.868603358 113.0
46.873527214 125.0
46.878451070 124.0
46.883374926 113.0
46.888298782 146.0
46.893222638 117.0
46.898146494 120.0
46.903070350 126.0
46.907994206 120.0
46.912918062 117.0
46.917841918 122.0
46.922765774 126.0
46.927689630 129.0
46.932613486 109.0
46.937537342 125.0
46.942461198 131.0
46.947385054 125.0
46.952308910 117.0
46.957232766 122.0
46.962156622 130.0
46.967080478 151.0
46.972004334 157.0
46.976928190 162.0
46.981852046 165.0
46.986775902 155.0
46.991699758 173.0
46.996623614 163.0
47.001547470 178.0
47.006471326 173.0
47.011395182 184.0
47.016319038 207.0
47.021242894 208.0
47.026166750 273.0
47.031090606 277.0
47.036014462 370.0
47.040938318 401.0
47.045862174 461.0
47.050786030 569.0
47.055709886 676.0
47.060633742 840.0
47.065557598 977.0
47.070481454 1153.0
47.075405310 1261.0
47.080329166 1382.0
47.085253022 1454.0
47.090176878 1457.0
47.095100734 1502.0
47.100024590 1442.0
47.104948446 1443.0
47.109872302 1382.0
47.114796158 1211.0
47.119720014 1159.0
47.124643870 908.0
47.129567726 840.0
47.134491582 704.0
47.139415438 587.0
47.144339294 489.0
47.149263150 415.0
47.154187006 371.0
47.159110862 349.0
47.164034718 345.0
47.168958574 283.0
47.173882430 285.0
47.178806286 256.0
47.183730142 235.0
47.188653998 214.0
47.193577854 202.0
47.198501710 191.0
47.203425566 189.0
47.208349422 193.0
47.213273278 171.0
47.218197134 178.0
47.223120990 166.0
47.228044846 143.0
47.232968702 161.0
47.237892558 131.0
47.242816414 164.0
47.247740270 160.0
47.252664127 139.0
47.257587983 150.0
47.262511839 136.0
47.267435695 137.0
47.272359551 141.0
47.277283407 136.0
47.282207263 131.0
47.287131119 141.0
47.292054975 108.0
47.296978831 133.0
47.301902687 131.0
47.306826543 141.0
47.311750399 136.0
47.316674255 127.0
47.321598111 156.0
47.326521967 155.0
47.331445823 134.0
47.336369679 142.0
47.341293535 143.0
47.346217391 107.0
47.351141247 117.0
47.356065103 139.0
47.360988959 125.0
47.365912815 122.0
47.370836671 133.0
47.375760527 117.0
47.380684383 138.0
47.385608239 113.0
47.390532095 140.0
47.395455951 116.0
47.400379807 127.0
47.405303663 118.0
47.410227519 126.0
47.415151375 119.0
47.420075231 121.0
47.424999087 140.0
47.429922943 128.0
47.434846799 126.0
47.439770655 137.0
47.444694511 126.0
47.449618367 127.0
47.454542223 119.0
47.459466079 124.0
47.464389935 149.0
47.469313791 144.0
47.474237647 130.0
47.479161503 149.0
47.484085359 134.0
47.489009215 103.0
47.493933071 111.0
47.498856927 127.0
47.503780783 108.0
47.508704639 126.0
47.513628495 95.0
47.518552351 140.0
47.523476207 113.0
47.528400063 123.0
47.533323919 126.0
47.538247775 125.0
47.543171631 122.0
47.548095487 112.0
47.553019343 114.0
47.557943199 117.0
47.562867055 139.0
47.567790911 126.0
47.572714767 123.0
47.577638623 101.0
47.582562479 114.0
47.587486335 130.0
47.592410191 134.0
47.597334047 120.0
47.602257903 111.0
47.607181759 104.0
47.612105615 110.0
47.617029471 116.0
47.621953327 124.0
47.626877183 119.0
47.631801039 136.0
47.636724895 129.0
47.641648751 135.0
47.646572607 137.0
47.651496463 115.0
47.656420319 138.0
47.661344175 120.0
47.666268031 116.0
47.671191887 131.0
47.676115743 122.0
47.681039599 135.0
47.685963455 130.0
47.690887311 133.0
47.695811167 147.0
47.700735023 128.0
47.705658879 125.0
47.710582735 109.0
47.715506591 104.0
47.720430447 115.0
47.725354303 117.0
47.730278159 138.0
47.735202015 112.0
47.740125871 134.0
47.745049727 130.0
47.749973583 125.0
47.754897440 149.0
47.759821296 130.0
47.764745152 125.0
47.769669008 135.0
47.774592864 117.0
47.779516720 129.0
47.784440576 108.0
47.789364432 123.0
47.794288288 114.0
47.799212144 127.0
47.804136000 145.0
47.809059856 126.0
47.813983712 124.0
47.818907568 119.0
47.823831424 108.0
47.828755280 132.0
47.833679136 123.0
47.838602992 121.0
47.843526848 133.0
47.848450704 123.0
47.853374560 125.0
47.858298416 130.0
47.863222272 113.0
47.868146128 118.0
47.873069984 101.0
47.877993840 116.0
47.882917696 113.0
47.887841552 127.0
47.892765408 152.0
47.897689264 103.0
47.902613120 117.0
47.907536976 127.0
47.912460832 118.0
47.917384688 133.0
47.922308544 129.0
47.927232400 125.0
47.932156256 112.0
47.937080112 112.0
47.942003968 110.0
47.946927824 131.0
47.951851680 129.0
47.956775536 124.0
47.961699392 133.0
47.966623248 118.0
47.971547104 125.0
47.976470960 115.0
47.981394816 115.0
47.986318672 131.0
47.991242528 130.0
47.996166384 103.0
48.001090240 131.0
48.006014096 109.0
48.010937952 129.0
48.015861808 112.0
48.020785664 135.0
48.025709520 122.0
48.030633376 114.0
48.035557232 141.0
48.040481088 122.0
48.045404944 111.0
48.050328800 129.0
48.055252656 114.0
48.060176512 124.0
48.065100368 123.0
48.070024224 119.0
48.074948080 138.0
48.079871936 130.0
48.084795792 122.0
48.089719648 114.0
48.094643504 129.0
48.099567360 140.0
48.104491216 129.0
48.109415072 120.0
48.114338928 129.0
48.119262784 140.0
48.124186640 143.0
48.129110496 131.0
48.134034352 121.0
48.138958208 123.0
48.143882064 138.0
48.148805920 118.0
48.153729776 138.0
48.158653632 102.0
48.163577488 122.0
48.168501344 110.0
48.173425200 126.0
48.178349056 144.0
48.183272912 131.0
48.188196768 136.0
48.193120624 118.0
48.198044480 120.0
48.202968336 110.0
48.207892192 116.0
48.212816048 133.0
48.217739904 125.0
48.222663760 108.0
48.227587616 131.0
48.232511472 169.0
48.237435328 125.0
48.242359184 120.0
48.247283040 140.0
48.252206897 127.0
48.257130753 110.0
48.262054609 126.0
48.266978465 136.0
48.271902321 143.0
48.276826177 126.0
48.281750033 122.0
48.286673889 138.0
48.291597745 117.0
48.296521601 117.0
48.301445457 143.0
48.306369313 133.0
48.311293169 117.0
48.316217025 123.0
48.321140881 146.0
48.326064737 133.0
48.330988593 125.0
48.335912449 119.0
48.340836305 131.0
48.345760161 116.0
48.350684017 137.0
48.355607873 131.0
48.360531729 144.0
48.365455585 123.0
48.370379441 134.0
48.375303297 135.0
48.380227153 147.0
48.385151009 126.0
48.390074865 132.0
48.394998721 125.0
48.399922577 156.0
48.404846433 146.0
48.409770289 127.0
48.414694145 135.0
48.419618001 149.0
48.424541857 129.0
48.429465713 145.0
48.434389569 138.0
48.439313425 133.0
48.444237281 141.0
48.449161137 134.0
48.454084993 138.0
48.459008849 138.0
48.463932705 145.0
48.468856561 119.0
48.473780417 137.0
48.478704273 138.0
48.483628129 162.0
48.488551985 137.0
48.493475841 125.0
48.498399697 133.0
48.503323553 129.0
48.508247409 142.0
48.513171265 153.0
48.518095121 144.0
48.523018977 140.0
48.527942833 148.0
48.532866689 149.0
48.537790545 128.0
48.542714401 138.0
48.547638257 143.0
48.552562113 145.0
48.557485969 138.0
48.562409825 135.0
48.567333681 125.0
48.572257537 145.0
48.577181393 129.0
48.582105249 142.0
48.587029105 137.0
48.591952961 140.0
48.596876817 148.0
48.601800673 122.0
48.606724529 140.0
48.611648385 160.0
48.616572241 135.0
48.621496097 133.0
48.626419953 156.0
48.631343809 155.0
48.636267665 155.0
48.641191521 155.0
48.646115377 142.0
48.651039233 165.0
48.655963089 136.0
48.660886945 137.0
48.665810801 186.0
48.670734657 158.0
48.675658513 141.0
48.680582369 142.0
48.685506225 137.0
48.690430081 155.0
48.695353937 148.0
48.700277793 151.0
48.705201649 145.0
48.710125505 168.0
48.715049361 135.0
48.719973217 148.0
48.724897073 156.0
48.729820929 155.0
48.734744785 151.0
48.739668641 164.0
48.744592497 157.0
48.749516353 142.0
48.754440210 165.0
48.759364066 145.0
48.764287922 160.0
48.769211778 148.0
48.774135634 158.0
48.779059490 179.0
48.783983346 157.0
48.788907202 166.0
48.793831058 156.0
48.798754914 145.0
48.803678770 156.0
48.808602626 155.0
48.813526482 166.0
48.818450338 171.0
48.823374194 171.0
48.828298050 152.0
48.833221906 172.0
48.838145762 196.0
48.843069618 167.0
48.847993474 158.0
48.852917330 163.0
48.857841186 164.0
48.862765042 195.0
48.867688898 149.0
48.872612754 180.0
48.877536610 177.0
48.882460466 177.0
48.887384322 154.0
48.892308178 132.0
48.897232034 162.0
48.902155890 158.0
48.907079746 156.0
48.912003602 161.0
48.916927458 177.0
48.921851314 197.0
48.926775170 178.0
48.931699026 170.0
48.936622882 160.0
48.941546738 187.0
48.946470594 162.0
48.951394450 158.0
48.956318306 167.0
48.961242162 161.0
48.966166018 182.0
48.971089874 184.0
48.976013730 175.0
48.980937586 155.0
48.985861442 194.0
48.990785298 156.0
48.995709154 169.0
49.000633010 212.0
49.005556866 173.0
49.010480722 181.0
49.015404578 179.0
49.020328434 182.0
49.025252290 193.0
49.030176146 170.0
49.035100002 203.0
49.040023858 176.0
49.044947714 184.0
49.049871570 186.0
49.054795426 186.0
49.059719282 180.0
49.064643138 208.0
49.069566994 196.0
49.074490850 202.0
49.079414706 197.0
49.084338562 183.0
49.089262418 173.0
49.094186274 190.0
49.099110130 196.0
49.104033986 199.0
49.108957842 198.0
49.113881698 160.0
49.118805554 215.0
49.123729410 221.0
49.128653266 220.0
49.133577122 233.0
49.138500978 203.0
49.143424834 186.0
49.148348690 223.0
49.153272546 186.0
49.158196402 216.0
49.163120258 212.0
49.168044114 214.0
49.172967970 205.0
49.177891826 233.0
49.182815682 210.0
49.187739538 208.0
49.192663394 259.0
49.197587250 231.0
49.202511106 221.0
49.207434962 230.0
49.212358818 210.0
49.217282674 240.0
49.222206530 223.0
49.227130386 224.0
49.232054242 247.0
49.236978098 268.0
49.241901954 214.0
49.246825810 260.0
49.251749667 249.0
49.256673523 246.0
49.261597379 236.0
49.266521235 247.0
49.271445091 234.0
49.276368947 291.0
49.281292803 270.0
49.286216659 266.0
49.291140515 270.0
49.296064371 304.0
49.300988227 282.0
49.305912083 256.0
49.310835939 288.0
49.315759795 318.0
49.320683651 290.0
49.325607507 301.0
49.330531363 284.0
49.335455219 297.0
49.340379075 341.0
49.345302931 310.0
49.350226787 363.0
49.355150643 322.0
49.360074499 365.0
49.364998355 322.0
49.369922211 374.0
49.374846067 342.0
49.379769923 373.0
49.384693779 368.0
49.389617635 334.0
49.394541491 352.0
49.399465347 372.0
49.404389203 379.0
49.409313059 388.0
49.414236915 392.0
49.419160771 390.0
49.424084627 425.0
49.429008483 441.0
49.433932339 455.0
49.438856195 434.0
49.443780051 469.0
49.448703907 435.0
49.453627763 457.0
49.458551619 477.0
49.463475475 479.0
49.468399331 516.0
49.473323187 499.0
49.478247043 479.0
49.483170899 542.0
49.488094755 550.0
49.493018611 577.0
49.497942467 557.0
49.502866323 571.0
49.507790179 614.0
49.512714035 672.0
49.517637891 613.0
49.522561747 728.0
49.527485603 656.0
49.532409459 667.0
49.537333315 691.0
49.542257171 705.0
49.547181027 789.0
49.552104883 746.0
49.557028739 852.0
49.561952595 868.0
49.566876451 864.0
49.571800307 909.0
49.576724163 917.0
49.581648019 938.0
49.586571875 973.0
49.591495731 1011.0
49.596419587 1003.0
49.601343443 1077.0
49.606267299 1105.0
49.611191155 1110.0
49.616115011 1241.0
49.621038867 1236.0
49.625962723 1258.0
49.630886579 1250.0
49.635810435 1394.0
49.640734291 1454.0
49.645658147 1445.0
49.650582003 1419.0
49.655505859 1605.0
49.660429715 1656.0
49.665353571 1635.0
49.670277427 1712.0
49.675201283 1855.0
49.680125139 1896.0
49.685048995 1964.0
49.689972851 2003.0
49.694896707 2015.0
49.699820563 2120.0
49.704744419 2164.0
49.709668275 2169.0
49.714592131 2254.0
49.719515987 2318.0
49.724439843 2464.0
49.729363699 2464.0
49.734287555 2571.0
49.739211411 2763.0
49.744135267 2753.0
49.749059123 2824.0
49.753982980 2857.0
49.758906836 3004.0
49.763830692 3126.0
49.768754548 3115.0
49.773678404 3302.0
49.778602260 3322.0
49.783526116 3343.0
49.788449972 3500.0
49.793373828 3524.0
49.798297684 3588.0
49.803221540 3756.0
49.808145396 3747.0
49.813069252 3959.0
49.817993108 3961.0
49.822916964 4105.0
49.827840820 4161.0
49.832764676 4217.0
49.837688532 4226.0
49.842612388 4487.0
49.847536244 4462.0
49.852460100 4615.0
49.857383956 4525.0
49.862307812 4597.0
49.867231668 4588.0
49.872155524 4639.0
49.877079380 4620.0
49.882003236 4697.0
49.886927092 4728.0
49.891850948 4744.0
49.896774804 4780.0
49.901698660 4688.0
49.906622516 4852.0
49.911546372 4751.0
49.916470228 4760.0
49.921394084 4847.0
49.926317940 4763.0
49.931241796 4742.0
49.936165652 4760.0
49.941089508 4770.0
49.946013364 4627.0
49.950937220 4692.0
49.955861076 4616.0
49.960784932 4622.0
49.965708788 4655.0
49.970632644 4556.0
49.975556500 4534.0
49.980480356 4338.0
49.985404212 4298.0
49.990328068 4375.0
49.995251924 4227.0
50.000175780 4391.0
50.005099636 4324.0
50.010023492 4108.0
50.014947348 4057.0
50.019871204 4019.0
50.024795060 3909.0
50.029718916 3898.0
50.034642772 3826.0
50.039566628 3758.0
50.044490484 3665.0
50.049414340 3713.0
50.054338196 3574.0
50.059262052 3425.0
50.064185908 3454.0
50.069109764 3224.0
50.074033620 3193.0
50.078957476 3153.0
50.083881332 3176.0
50.088805188 2995.0
50.093729044 3009.0
50.098652900 2941.0
50.103576756 2861.0
50.108500612 2874.0
50.113424468 2689.0
50.118348324 2607.0
50.123272180 2522.0
50.128196036 2499.0
50.133119892 2465.0
50.138043748 2318.0
50.142967604 2429.0
50.147891460 2339.0
50.152815316 2225.0
50.157739172 2118.0
50.162663028 2121.0
50.167586884 1960.0
50.172510740 1973.0
50.177434596 1957.0
50.182358452 1869.0
50.187282308 1748.0
50.192206164 1737.0
50.197130020 1724.0
50.202053876 1695.0
50.206977732 1647.0
50.211901588 1583.0
50.216825444 1418.0
50.221749300 1560.0
50.226673156 1441.0
50.231597012 1391.0
50.236520868 1350.0
50.241444724 1294.0
50.246368580 1283.0
50.251292437 1215.0
50.256216293 1171.0
50.261140149 1172.0
50.266064005 1119.0
50.270987861 1100.0
50.275911717 1070.0
50.280835573 1098.0
50.285759429 1031.0
50.290683285 1025.0
50.295607141 922.0
50.300530997 912.0
50.305454853 874.0
50.310378709 919.0
50.315302565 901.0
50.320226421 858.0
50.325150277 845.0
50.330074133 844.0
50.334997989 819.0
50.339921845 738.0
50.344845701 737.0
50.349769557 698.0
50.354693413 723.0
50.359617269 712.0
50.364541125 686.0
50.369464981 661.0
50.374388837 644.0
50.379312693 635.0
50.384236549 642.0
50.389160405 651.0
50.394084261 590.0
50.399008117 581.0
50.403931973 550.0
50.408855829 562.0
50.413779685 542.0
50.418703541 531.0
50.423627397 491.0
50.428551253 517.0
50.433475109 526.0
50.438398965 530.0
50.443322821 491.0
50.448246677 475.0
50.453170533 461.0
50.458094389 459.0
50.463018245 440.0
50.467942101 434.0
50.472865957 456.0
50.477789813 456.0
50.482713669 463.0
50.487637525 391.0
50.492561381 409.0
50.497485237 414.0
50.502409093 416.0
50.507332949 417.0
50.512256805 378.0
50.517180661 362.0
50.522104517 356.0
50.527028373 382.0
50.531952229 383.0
50.536876085 376.0
50.541799941 325.0
50.546723797 363.0
50.551647653 358.0
50.556571509 386.0
50.561495365 354.0
50.566419221 349.0
50.571343077 326.0
50.576266933 398.0
50.581190789 329.0
50.586114645 333.0
50.591038501 297.0
50.595962357 354.0
50.600886213 290.0
50.605810069 329.0
50.610733925 353.0
50.615657781 314.0
50.620581637 327.0
50.625505493 278.0
50.630429349 323.0
50.635353205 313.0
50.640277061 278.0
50.645200917 294.0
50.650124773 273.0
50.655048629 306.0
50.659972485 303.0
50.664896341 313.0
50.669820197 298.0
50.674744053 289.0
50.679667909 303.0
50.684591765 286.0
50.689515621 310.0
50.694439477 300.0
50.699363333 282.0
50.704287189 284.0
50.709211045 256.0
50.714134901 281.0
50.719058757 279.0
50.723982613 276.0
50.728906469 279.0
50.733830325 304.0
50.738754181 273.0
50.743678037 219.0
50.748601893 266.0
50.753525750 260.0
50.758449606 298.0
50.763373462 296.0
50.768297318 240.0
50.773221174 292.0
50.778145030 261.0
50.783068886 255.0
50.787992742 262.0
50.792916598 272.0
50.797840454 283.0
50.802764310 293.0
50.807688166 310.0
50.812612022 275.0
50.817535878 267.0
50.822459734 259.0
50.827383590 257.0
50.832307446 262.0
50.837231302 279.0
50.842155158 276.0
50.847079014 282.0
50.852002870 232.0
50.856926726 268.0
50.861850582 277.0
50.866774438 264.0
50.871698294 283.0
50.876622150 275.0
50.881546006 292.0
50.886469862 264.0
50.891393718 259.0
50.896317574 287.0
50.901241430 237.0
50.906165286 279.0
50.911089142 258.0
50.916012998 257.0
50.920936854 279.0
50.925860710 259.0
50.930784566 258.0
50.935708422 260.0
50.940632278 265.0
50.945556134 284.0
50.950479990 290.0
50.955403846 276.0
50.960327702 282.0
50.965251558 268.0
50.970175414 291.0
50.975099270 278.0
50.980023126 255.0
50.984946982 300.0
50.989870838 292.0
50.994794694 297.0
50.999718550 325.0
51.004642406 272.0
51.009566262 309.0
51.014490118 305.0
51.019413974 290.0
51.024337830 326.0
51.029261686 293.0
51.034185542 294.0
51.039109398 293.0
51.044033254 297.0
51.048957110 281.0
51.053880966 296.0
51.058804822 315.0
51.063728678 280.0
51.068652534 285.0
51.073576390 327.0
51.078500246 266.0
51.083424102 295.0
51.088347958 296.0
51.093271814 289.0
51.098195670 295.0
51.103119526 327.0
51.108043382 332.0
51.112967238 294.0
51.117891094 309.0
51.122814950 318.0
51.127738806 319.0
51.132662662 328.0
51.137586518 326.0
51.142510374 329.0
51.147434230 333.0
51.152358086 387.0
51.157281942 365.0
51.162205798 338.0
51.167129654 332.0
51.172053510 340.0
51.176977366 343.0
51.181901222 315.0
51.186825078 304.0
51.191748934 332.0
51.196672790 331.0
51.201596646 336.0
51.206520502 307.0
51.211444358 360.0
51.216368214 374.0
51.221292070 347.0
51.226215926 375.0
51.231139782 336.0
51.236063638 356.0
51.240987494 352.0
51.245911350 403.0
51.250835207 389.0
51.255759063 382.0
51.260682919 371.0
51.265606775 364.0
51.270530631 351.0
51.275454487 372.0
51.280378343 366.0
51.285302199 365.0
51.290226055 389.0
51.295149911 387.0
51.300073767 350.0
51.304997623 388.0
51.309921479 375.0
51.314845335 399.0
51.319769191 374.0
51.324693047 364.0
51.329616903 398.0
51.334540759 390.0
51.339464615 350.0
51.344388471 372.0
51.349312327 406.0
51.354236183 401.0
51.359160039 404.0
51.364083895 422.0
51.369007751 432.0
51.373931607 419.0
51.378855463 431.0
51.383779319 410.0
51.388703175 408.0
51.393627031 414.0
51.398550887 394.0
51.403474743 449.0
51.408398599 421.0
51.413322455 356.0
51.418246311 388.0
51.423170167 417.0
51.428094023 408.0
51.433017879 434.0
51.437941735 400.0
51.442865591 430.0
51.447789447 446.0
51.452713303 454.0
51.457637159 407.0
51.462561015 428.0
51.467484871 397.0
51.472408727 450.0
51.477332583 467.0
51.482256439 442.0
51.487180295 457.0
51.492104151 450.0
51.497028007 461.0
51.501951863 436.0
51.506875719 469.0
51.511799575 443.0
51.516723431 480.0
51.521647287 489.0
51.526571143 454.0
51.531494999 455.0
51.536418855 443.0
51.541342711 503.0
51.546266567 467.0
51.551190423 514.0
51.556114279 540.0
51.561038135 483.0
51.565961991 495.0
51.570885847 509.0
51.575809703 524.0
51.580733559 467.0
51.585657415 499.0
51.590581271 513.0
51.595505127 489.0
51.600428983 533.0
51.605352839 522.0
51.610276695 515.0
51.615200551 524.0
51.620124407 535.0
51.625048263 519.0
51.629972119 513.0
51.634895975 545.0
51.639819831 545.0
51.644743687 537.0
51.649667543 603.0
51.654591399 577.0
51.659515255 553.0
51.664439111 566.0
51.669362967 546.0
51.674286823 565.0
51.679210679 514.0
51.684134535 594.0
51.689058391 575.0
51.693982247 592.0
51.698906103 588.0
51.703829959 567.0
51.708753815 591.0
51.713677671 598.0
51.718601527 582.0
51.723525383 610.0
51.728449239 572.0
51.733373095 584.0
51.738296951 649.0
51.743220807 642.0
51.748144663 585.0
51.753068520 599.0
51.757992376 593.0
51.762916232 636.0
51.767840088 672.0
51.772763944 659.0
51.777687800 665.0
51.782611656 685.0
51.787535512 670.0
51.792459368 654.0
51.797383224 653.0
51.802307080 656.0
51.807230936 660.0
51.812154792 681.0
51.817078648 660.0
51.822002504 685.0
51.826926360 669.0
51.831850216 680.0
51.836774072 709.0
51.841697928 703.0
51.846621784 686.0
51.851545640 696.0
51.856469496 680.0
51.861393352 702.0
51.866317208 708.0
51.871241064 734.0
51.876164920 728.0
51.881088776 728.0
51.886012632 737.0
51.890936488 786.0
51.895860344 717.0
51.900784200 750.0
51.905708056 814.0
51.910631912 817.0
51.915555768 799.0
51.920479624 759.0
51.925403480 797.0
51.930327336 762.0
51.935251192 806.0
51.940175048 858.0
51.945098904 817.0
51.950022760 877.0
51.954946616 849.0
51.959870472 850.0
51.964794328 862.0
51.969718184 868.0
51.974642040 878.0
51.979565896 897.0
51.984489752 874.0
51.989413608 947.0
51.994337464 945.0
51.999261320 935.0
52.004185176 973.0
52.009109032 989.0
52.014032888 965.0
52.018956744 1053.0
52.023880600 1062.0
52.028804456 1029.0
52.033728312 1062.0
52.038652168 1134.0
52.043576024 1125.0
52.048499880 1081.0
52.053423736 1085.0
52.058347592 1151.0
52.063271448 1174.0
52.068195304 1225.0
52.073119160 1243.0
52.078043016 1252.0
52.082966872 1247.0
52.087890728 1325.0
52.092814584 1312.0
52.097738440 1235.0
52.102662296 1388.0
52.107586152 1331.0
52.112510008 1387.0
52.117433864 1374.0
52.122357720 1446.0
52.127281576 1442.0
52.132205432 1589.0
52.137129288 1593.0
52.142053144 1680.0
52.146977000 1706.0
52.151900856 1768.0
52.156824712 1819.0
52.161748568 1949.0
52.166672424 2022.0
52.171596280 2186.0
52.176520136 2237.0
52.181443992 2396.0
52.186367848 2532.0
52.191291704 2689.0
52.196215560 2882.0
52.201139416 3139.0
52.206063272 3317.0
52.210987128 3562.0
52.215910984 3703.0
52.220834840 3922.0
52.225758696 4164.0
52.230682552 4228.0
52.235606408 4272.0
52.240530264 4466.0
52.245454120 4558.0
52.250377977 4700.0
52.255301833 4701.0
52.260225689 4706.0
52.265149545 4781.0
52.270073401 4740.0
52.274997257 4642.0
52.279921113 4691.0
52.284844969 4566.0
52.289768825 4539.0
52.294692681 4545.0
52.299616537 4519.0
52.304540393 4510.0
52.309464249 4474.0
52.314388105 4696.0
52.319311961 4583.0
52.324235817 4911.0
52.329159673 5034.0
52.334083529 5097.0
52.339007385 5556.0
52.343931241 5638.0
52.348855097 6050.0
52.353778953 6452.0
52.358702809 6872.0
52.363626665 7305.0
52.368550521 7748.0
52.373474377 8521.0
52.378398233 9600.0
52.383322089 10113.0
52.388245945 11401.0
52.393169801 12490.0
52.398093657 14354.0
52.403017513 16117.0
52.407941369 18667.0
52.412865225 21280.0
52.417789081 25127.0
52.422712937 30023.0
52.427636793 37261.0
52.432560649 46948.0
52.437484505 62470.0
52.442408361 85272.0
52.447332217 125537.0
52.452256073 179358.0
52.457179929 246467.0
52.462103785 298102.0
52.467027641 337712.0
52.471951497 359030.0
52.476875353 378202.0
52.481799209 384606.0
52.486723065 390043.0
52.491646921 386186.0
52.496570777 374652.0
52.501494633 352358.0
52.506418489 306613.0
52.511342345 248522.0
52.516266201 182149.0
52.521190057 132305.0
52.526113913 96343.0
52.531037769 73313.0
52.535961625 56872.0
52.540885481 46029.0
52.545809337 38889.0
52.550733193 34408.0
52.555657049 31672.0
52.560580905 30667.0
52.565504761 31485.0
52.570428617 34371.0
52.575352473 39226.0
52.580276329 47697.0
52.585200185 61826.0
52.590124041 83542.0
52.595047897 110604.0
52.599971753 137443.0
52.604895609 159662.0
52.609819465 175066.0
52.614743321 186776.0
52.619667177 191786.0
52.624591033 194431.0
52.629514889 194516.0
52.634438745 189573.0
52.639362601 180160.0
52.644286457 163756.0
52.649210313 139687.0
52.654134169 111970.0
52.659058025 84037.0
52.663981881 63145.0
52.668905737 46448.0
52.673829593 35631.0
52.678753449 27580.0
52.683677305 21742.0
52.688601161 18104.0
52.693525017 15358.0
52.698448873 13001.0
52.703372729 11193.0
52.708296585 10075.0
52.713220441 8971.0
52.718144297 8218.0
52.723068153 7436.0
52.727992009 7220.0
52.732915865 6481.0
52.737839721 6094.0
52.742763577 5670.0
52.747687433 5339.0
52.752611290 5141.0
52.757535146 4785.0
52.762459002 4411.0
52.767382858 4343.0
52.772306714 4188.0
52.777230570 3834.0
52.782154426 3812.0
52.787078282 3566.0
52.792002138 3549.0
52.796925994 3344.0
52.801849850 3157.0
52.806773706 3098.0
52.811697562 3087.0
52.816621418 2869.0
52.821545274 2714.0
52.826469130 2614.0
52.831392986 2611.0
52.836316842 2542.0
52.841240698 2398.0
52.846164554 2416.0
52.851088410 2295.0
52.856012266 2199.0
52.860936122 2136.0
52.865859978 2281.0
52.870783834 2094.0
52.875707690 2024.0
52.880631546 2040.0
52.885555402 1947.0
52.890479258 1859.0
52.895403114 1789.0
52.900326970 1824.0
52.905250826 1737.0
52.910174682 1742.0
52.915098538 1649.0
52.920022394 1702.0
52.924946250 1652.0
52.929870106 1573.0
52.934793962 1520.0
52.939717818 1522.0
52.944641674 1413.0
52.949565530 1359.0
52.954489386 1389.0
52.959413242 1315.0
52.964337098 1358.0
52.969260954 1318.0
52.974184810 1276.0
52.979108666 1287.0
52.984032522 1235.0
52.988956378 1217.0
52.993880234 1206.0
52.998804090 1178.0
53.003727946 1165.0
53.008651802 1190.0
53.013575658 1124.0
53.018499514 1108.0
53.023423370 1054.0
53.028347226 1067.0
53.033271082 1063.0
53.038194938 1017.0
53.043118794 1015.0
53.048042650 950.0
53.052966506 932.0
53.057890362 936.0
53.062814218 938.0
53.067738074 917.0
53.072661930 896.0
53.077585786 903.0
53.082509642 908.0
53.087433498 910.0
53.092357354 938.0
53.097281210 841.0
53.102205066 810.0
53.107128922 848.0
53.112052778 779.0
53.116976634 842.0
53.121900490 810.0
53.126824346 772.0
53.131748202 822.0
53.136672058 776.0
53.141595914 797.0
53.146519770 768.0
53.151443626 777.0
53.156367482 753.0
53.161291338 695.0
53.166215194 731.0
53.171139050 718.0
53.176062906 742.0
53.180986762 687.0
53.185910618 673.0
53.190834474 668.0
53.195758330 710.0
53.200682186 709.0
53.205606042 678.0
53.210529898 678.0
53.215453754 659.0
53.220377610 614.0
53.225301466 634.0
53.230225322 649.0
53.235149178 635.0
53.240073034 567.0
53.244996890 600.0
53.249920747 585.0
53.254844603 615.0
53.259768459 556.0
53.264692315 602.0
53.269616171 572.0
53.274540027 521.0
53.279463883 572.0
53.284387739 541.0
53.289311595 535.0
53.294235451 552.0
53.299159307 521.0
53.304083163 556.0
53.309007019 546.0
53.313930875 523.0
53.318854731 496.0
53.323778587 462.0
53.328702443 515.0
53.333626299 456.0
53.338550155 501.0
53.343474011 462.0
53.348397867 460.0
53.353321723 473.0
53.358245579 475.0
53.363169435 500.0
53.368093291 448.0
53.373017147 430.0
53.377941003 451.0
53.382864859 439.0
53.387788715 408.0
53.392712571 397.0
53.397636427 404.0
53.402560283 441.0
53.407484139 430.0
53.412407995 413.0
53.417331851 404.0
53.422255707 428.0
53.427179563 406.0
53.432103419 385.0
53.437027275 417.0
53.441951131 365.0
53.446874987 410.0
53.451798843 381.0
53.456722699 389.0
53.461646555 391.0
53.466570411 347.0
53.471494267 363.0
53.476418123 340.0
53.481341979 371.0
53.486265835 370.0
53.491189691 335.0
53.496113547 357.0
53.501037403 372.0
53.505961259 343.0
53.510885115 359.0
53.515808971 349.0
53.520732827 359.0
53.525656683 333.0
53.530580539 303.0
53.535504395 322.0
53.540428251 337.0
53.545352107 275.0
53.550275963 321.0
53.555199819 321.0
53.560123675 273.0
53.565047531 307.0
53.569971387 303.0
53.574895243 323.0
53.579819099 303.0
53.584742955 317.0
53.589666811 292.0
53.594590667 331.0
53.599514523 291.0
53.604438379 218.0
53.609362235 263.0
53.614286091 287.0
53.619209947 271.0
53.624133803 267.0
53.629057659 283.0
53.633981515 284.0
53.638905371 266.0
53.643829227 275.0
53.648753083 289.0
53.653676939 298.0
53.658600795 263.0
53.663524651 266.0
53.668448507 275.0
53.673372363 299.0
53.678296219 285.0
53.683220075 228.0
53.688143931 263.0
53.693067787 269.0
53.697991643 228.0
53.702915499 223.0
53.707839355 223.0
53.712763211 280.0
53.717687067 227.0
53.722610923 213.0
53.727534779 192.0
53.732458635 276.0
53.737382491 270.0
53.742306347 204.0
53.747230203 226.0
53.752154060 210.0
53.757077916 236.0
53.762001772 227.0
53.766925628 209.0
53.771849484 213.0
53.776773340 189.0
53.781697196 261.0
53.786621052 224.0
53.791544908 213.0
53.796468764 260.0
53.801392620 216.0
53.806316476 198.0
53.811240332 208.0
53.816164188 211.0
53.821088044 207.0
53.826011900 196.0
53.830935756 220.0
53.835859612 188.0
53.840783468 198.0
53.845707324 203.0
53.850631180 185.0
53.855555036 208.0
53.860478892 229.0
53.865402748 221.0
53.870326604 196.0
53.875250460 159.0
53.880174316 217.0
53.885098172 187.0
53.890022028 220.0
53.894945884 198.0
53.899869740 197.0
53.904793596 201.0
53.909717452 202.0
53.914641308 206.0
53.919565164 192.0
53.924489020 181.0
53.929412876 198.0
53.934336732 201.0
53.939260588 211.0
53.944184444 221.0
53.949108300 188.0
53.954032156 203.0
53.958956012 193.0
53.963879868 166.0
53.968803724 192.0
53.973727580 196.0
53.978651436 185.0
53.983575292 189.0
53.988499148 183.0
53.993423004 165.0
53.998346860 176.0
54.003270716 199.0
54.008194572 174.0
54.013118428 166.0
54.018042284 168.0
54.022966140 181.0
54.027889996 173.0
54.032813852 163.0
54.037737708 176.0
54.042661564 179.0
54.047585420 184.0
54.052509276 187.0
54.057433132 175.0
54.062356988 164.0
54.067280844 172.0
54.072204700 170.0
54.077128556 192.0
54.082052412 166.0
54.086976268 163.0
54.091900124 185.0
54.096823980 170.0
54.101747836 180.0
54.106671692 132.0
54.111595548 165.0
54.116519404 179.0
54.121443260 181.0
54.126367116 162.0
54.131290972 167.0
54.136214828 184.0
54.141138684 148.0
54.146062540 165.0
54.150986396 163.0
54.155910252 162.0
54.160834108 182.0
54.165757964 163.0
54.170681820 183.0
54.175605676 171.0
54.180529532 162.0
54.185453388 181.0
54.190377244 173.0
54.195301100 147.0
54.200224956 144.0
54.205148812 165.0
54.210072668 166.0
54.214996524 147.0
54.219920380 154.0
54.224844236 132.0
54.229768092 178.0
54.234691948 160.0
54.239615804 156.0
54.244539660 164.0
54.249463517 171.0
54.254387373 170.0
54.259311229 167.0
54.264235085 168.0
54.269158941 148.0
54.274082797 160.0
54.279006653 165.0
54.283930509 161.0
54.288854365 152.0
54.293778221 155.0
54.298702077 166.0
54.303625933 163.0
54.308549789 139.0
54.313473645 163.0
54.318397501 166.0
54.323321357 146.0
54.328245213 162.0
54.333169069 154.0
54.338092925 154.0
54.343016781 157.0
54.347940637 147.0
54.352864493 163.0
54.357788349 164.0
54.362712205 153.0
54.367636061 160.0
54.372559917 169.0
54.377483773 177.0
54.382407629 163.0
54.387331485 145.0
54.392255341 139.0
54.397179197 182.0
54.402103053 166.0
54.407026909 157.0
54.411950765 151.0
54.416874621 154.0
54.421798477 143.0
54.426722333 155.0
54.431646189 148.0
54.436570045 158.0
54.441493901 146.0
54.446417757 155.0
54.451341613 156.0
54.456265469 128.0
54.461189325 138.0
54.466113181 167.0
54.471037037 147.0
54.475960893 139.0
54.480884749 154.0
54.485808605 157.0
54.490732461 167.0
54.495656317 139.0
54.500580173 135.0
54.505504029 152.0
54.510427885 157.0
54.515351741 162.0
54.520275597 144.0
54.525199453 134.0
54.530123309 123.0
54.535047165 153.0
54.539971021 141.0
54.544894877 147.0
54.549818733 136.0
54.554742589 154.0
54.559666445 140.0
54.564590301 145.0
54.569514157 148.0
54.574438013 165.0
54.579361869 131.0
54.584285725 145.0
54.589209581 143.0
54.594133437 144.0
54.599057293 144.0
54.603981149 150.0
54.608905005 147.0
54.613828861 159.0
54.618752717 157.0
54.623676573 166.0
54.628600429 169.0
54.633524285 163.0
54.638448141 154.0
54.643371997 153.0
54.648295853 152.0
54.653219709 163.0
54.658143565 137.0
54.663067421 168.0
54.667991277 158.0
54.672915133 138.0
54.677838989 150.0
54.682762845 146.0
54.687686701 161.0
54.692610557 157.0
54.697534413 147.0
54.702458269 131.0
54.707382125 164.0
54.712305981 153.0
54.717229837 146.0
54.722153693 154.0
54.727077549 157.0
54.732001405 155.0
54.736925261 148.0
54.741849117 144.0
54.746772973 136.0
54.751696830 143.0
54.756620686 150.0
54.761544542 145.0
54.766468398 156.0
54.771392254 143.0
54.776316110 139.0
54.781239966 145.0
54.786163822 145.0
54.791087678 148.0
54.796011534 136.0
54.800935390 145.0
54.805859246 137.0
54.810783102 158.0
54.815706958 155.0
54.820630814 143.0
54.825554670 151.0
54.830478526 144.0
54.835402382 134.0
54.840326238 117.0
54.845250094 145.0
54.850173950 127.0
54.855097806 137.0
54.860021662 144.0
54.864945518 148.0
54.869869374 139.0
54.874793230 156.0
54.879717086 156.0
54.884640942 134.0
54.889564798 127.0
54.894488654 147.0
54.899412510 151.0
54.904336366 137.0
54.909260222 147.0
54.914184078 118.0
54.919107934 122.0
54.924031790 148.0
54.928955646 143.0
54.933879502 150.0
54.938803358 141.0
54.943727214 125.0
54.948651070 115.0
54.953574926 139.0
54.958498782 140.0
54.963422638 129.0
54.968346494 128.0
54.973270350 132.0
54.978194206 141.0
54.983118062 116.0
54.988041918 159.0
54.992965774 142.0
54.997889630 135.0
