55.001861930 147.0
55.006785786 152.0
55.011709642 143.0
55.016633498 153.0
55.021557354 142.0
55.026481210 170.0
55.031405066 163.0
55.036328922 159.0
55.041252778 192.0
55.046176634 169.0
55.051100490 141.0
55.056024346 159.0
55.060948202 149.0
55.065872058 139.0
55.070795914 137.0
55.075719770 157.0
55.080643626 135.0
55.085567482 152.0
55.090491338 154.0
55.095415194 184.0
55.100339050 148.0
55.105262906 164.0
55.110186762 142.0
55.115110618 158.0
55.120034474 155.0
55.124958330 142.0
55.129882186 154.0
55.134806042 162.0
55.139729898 170.0
55.144653754 152.0
55.149577610 153.0
55.154501466 170.0
55.159425322 148.0
55.164349178 160.0
55.169273034 162.0
55.174196890 164.0
55.179120746 156.0
55.184044602 146.0
55.188968459 154.0
55.193892315 166.0
55.198816171 132.0
55.203740027 151.0
55.208663883 153.0
55.213587739 162.0
55.218511595 153.0
55.223435451 173.0
55.228359307 151.0
55.233283163 144.0
55.238207019 181.0
55.243130875 167.0
55.248054731 154.0
55.252978587 149.0
55.257902443 141.0
55.262826299 172.0
55.267750155 152.0
55.272674011 154.0
55.277597867 167.0
55.282521723 162.0
55.287445579 147.0
55.292369435 138.0
55.297293291 164.0
55.302217147 159.0
55.307141003 117.0
55.312064859 139.0
55.316988715 148.0
55.321912571 175.0
55.326836427 170.0
55.331760283 160.0
55.336684139 139.0
55.341607995 140.0
55.346531851 154.0
55.351455707 145.0
55.356379563 153.0
55.361303419 137.0
55.366227275 142.0
55.371151131 163.0
55.376074987 181.0
55.380998843 142.0
55.385922699 133.0
55.390846555 140.0
55.395770411 184.0
55.400694267 169.0
55.405618123 147.0
55.410541979 153.0
55.415465835 139.0
55.420389691 141.0
55.425313547 167.0
55.430237403 180.0
55.435161259 153.0
55.440085115 151.0
55.445008971 173.0
55.449932827 132.0
55.454856683 157.0
55.459780539 164.0
55.464704395 170.0
55.469628251 165.0
55.474552107 135.0
55.479475963 170.0
55.484399819 171.0
55.489323675 140.0
55.494247531 148.0
55.499171387 166.0
55.504095243 152.0
55.509019099 168.0
55.513942955 158.0
55.518866811 168.0
55.523790667 149.0
55.528714523 159.0
55.533638379 157.0
55.538562235 139.0
55.543486091 167.0
55.548409947 166.0
55.553333803 156.0
55.558257660 156.0
55.563181516 139.0
55.568105372 163.0
55.573029228 161.0
55.577953084 156.0
55.582876940 156.0
55.587800796 145.0
55.592724652 167.0
55.597648508 157.0
55.602572364 136.0
55.607496220 137.0
55.612420076 180.0
55.617343932 171.0
55.622267788 175.0
55.627191644 150.0
55.632115500 147.0
55.637039356 161.0
55.641963212 155.0
55.646887068 146.0
55.651810924 160.0
55.656734780 182.0
55.661658636 166.0
55.666582492 159.0
55.671506348 122.0
55.676430204 172.0
55.681354060 163.0
55.686277916 136.0
55.691201772 144.0
55.696125628 146.0
55.701049484 164.0
55.705973340 159.0
55.710897196 141.0
55.715821052 139.0
55.720744908 157.0
55.725668764 147.0
55.730592620 178.0
55.735516476 140.0
55.740440332 136.0
55.745364188 178.0
55.750288044 140.0
55.755211900 156.0
55.760135756 148.0
55.765059612 153.0
55.769983468 168.0
55.774907324 156.0
55.779831180 138.0
55.784755036 133.0
55.789678892 143.0
55.794602748 159.0
55.799526604 162.0
55.804450460 151.0
55.809374316 159.0
55.814298172 153.0
55.819222028 142.0
55.824145884 174.0
55.829069740 154.0
55.833993596 136.0
55.838917452 147.0
55.843841308 150.0
55.848765164 165.0
55.853689020 180.0
55.858612876 166.0
55.863536732 146.0
55.868460588 152.0
55.873384444 166.0
55.878308300 157.0
55.883232156 151.0
55.888156012 155.0
55.893079868 136.0
55.898003724 150.0
55.902927580 155.0
55.907851436 138.0
55.912775292 149.0
55.917699148 147.0
55.922623004 144.0
55.927546860 171.0
55.932470717 161.0
55.937394573 143.0
55.942318429 135.0
55.947242285 152.0
55.952166141 153.0
55.957089997 166.0
55.962013853 143.0
55.966937709 174.0
55.971861565 152.0
55.976785421 159.0
55.981709277 170.0
55.986633133 155.0
55.991556989 158.0
55.996480845 167.0
56.001404701 151.0
56.006328557 145.0
56.011252413 150.0
56.016176269 161.0
56.021100125 152.0
56.026023981 134.0
56.030947837 140.0
56.035871693 178.0
56.040795549 157.0
56.045719405 179.0
56.050643261 153.0
56.055567117 136.0
56.060490973 142.0
56.065414829 152.0
56.070338685 147.0
56.075262541 163.0
56.080186397 166.0
56.085110253 155.0
56.090034109 143.0
56.094957965 141.0
56.099881821 155.0
56.104805677 149.0
56.109729533 167.0
56.114653389 136.0
56.119577245 146.0
56.124501101 172.0
56.129424957 150.0
56.134348813 148.0
56.139272669 175.0
56.144196525 166.0
56.149120381 159.0
56.154044237 141.0
56.158968093 160.0
56.163891949 158.0
56.168815805 148.0
56.173739661 149.0
56.178663517 163.0
56.183587373 150.0
56.188511229 165.0
56.193435085 165.0
56.198358941 156.0
56.203282797 144.0
56.208206653 169.0
56.213130509 166.0
56.218054365 154.0
56.222978221 162.0
56.227902077 180.0
56.232825933 133.0
56.237749789 169.0
56.242673645 153.0
56.247597501 163.0
56.252521357 154.0
56.257445213 153.0
56.262369069 144.0
56.267292925 143.0
56.272216781 157.0
56.277140637 149.0
56.282064493 168.0
56.286988349 163.0
56.291912205 142.0
56.296836061 166.0
56.301759918 148.0
56.306683774 156.0
56.311607630 186.0
56.316531486 149.0
56.321455342 147.0
56.326379198 147.0
56.331303054 139.0
56.336226910 163.0
56.341150766 151.0
56.346074622 161.0
56.350998478 144.0
56.355922334 159.0
56.360846190 182.0
56.365770046 157.0
56.370693902 148.0
56.375617758 164.0
56.380541614 138.0
56.385465470 160.0
56.390389326 148.0
56.395313182 162.0
56.400237038 163.0
56.405160894 164.0
56.410084750 151.0
56.415008606 146.0
56.419932462 166.0
56.424856318 161.0
56.429780174 156.0
56.434704030 160.0
56.439627886 138.0
56.444551742 165.0
56.449475598 142.0
56.454399454 143.0
56.459323310 156.0
56.464247166 168.0
56.469171022 153.0
56.474094878 147.0
56.479018734 153.0
56.483942590 150.0
56.488866446 149.0
56.493790302 157.0
56.498714158 159.0
56.503638014 167.0
56.508561870 175.0
56.513485726 154.0
56.518409582 166.0
56.523333438 156.0
56.528257294 166.0
56.533181150 141.0
56.538105006 150.0
56.543028862 151.0
56.547952718 158.0
56.552876574 156.0
56.557800430 153.0
56.562724286 146.0
56.567648142 166.0
56.572571998 168.0
56.577495854 142.0
56.582419710 142.0
56.587343566 151.0
56.592267422 166.0
56.597191278 153.0
56.602115134 142.0
56.607038990 155.0
56.611962846 155.0
56.616886702 165.0
56.621810558 131.0
56.626734414 173.0
56.631658270 145.0
56.636582126 149.0
56.641505982 183.0
56.646429838 178.0
56.651353694 144.0
56.656277550 155.0
56.661201406 146.0
56.666125262 147.0
56.671049119 148.0
56.675972975 157.0
56.680896831 158.0
56.685820687 164.0
56.690744543 180.0
56.695668399 164.0
56.700592255 137.0
56.705516111 164.0
56.710439967 165.0
56.715363823 164.0
56.720287679 161.0
56.725211535 156.0
56.730135391 159.0
56.735059247 166.0
56.739983103 163.0
56.744906959 159.0
56.749830815 153.0
56.754754671 155.0
56.759678527 174.0
56.764602383 164.0
56.769526239 156.0
56.774450095 189.0
56.779373951 156.0
56.784297807 173.0
56.789221663 161.0
56.794145519 157.0
56.799069375 157.0
56.803993231 156.0
56.808917087 160.0
56.813840943 159.0
56.818764799 162.0
56.823688655 149.0
56.828612511 174.0
56.833536367 155.0
56.838460223 163.0
56.843384079 167.0
56.848307935 145.0
56.853231791 159.0
56.858155647 166.0
56.863079503 155.0
56.868003359 163.0
56.872927215 166.0
56.877851071 140.0
56.882774927 149.0
56.887698783 152.0
56.892622639 142.0
56.897546495 138.0
56.902470351 160.0
56.907394207 155.0
56.912318063 135.0
56.917241919 147.0
56.922165775 152.0
56.927089631 145.0
56.932013487 174.0
56.936937343 161.0
56.941861199 154.0
56.946785055 143.0
56.951708911 153.0
56.956632767 139.0
56.961556623 137.0
56.966480479 156.0
56.971404335 145.0
56.976328191 151.0
56.981252047 149.0
56.986175903 163.0
56.991099759 183.0
56.996023615 161.0
57.000947471 152.0
57.005871327 177.0
57.010795183 169.0
57.015719039 145.0
57.020642895 147.0
57.025566751 146.0
57.030490607 154.0
57.035414463 146.0
57.040338320 155.0
57.045262176 160.0
57.050186032 152.0
57.055109888 164.0
57.060033744 145.0
57.064957600 161.0
57.069881456 138.0
57.074805312 149.0
57.079729168 169.0
57.084653024 145.0
57.089576880 162.0
57.094500736 153.0
57.099424592 154.0
57.104348448 162.0
57.109272304 175.0
57.114196160 167.0
57.119120016 148.0
57.124043872 150.0
57.128967728 149.0
57.133891584 167.0
57.138815440 142.0
57.143739296 146.0
57.148663152 163.0
57.153587008 160.0
57.158510864 157.0
57.163434720 168.0
57.168358576 165.0
57.173282432 133.0
57.178206288 169.0
57.183130144 154.0
57.188054000 151.0
57.192977856 142.0
57.197901712 140.0
57.202825568 135.0
57.207749424 143.0
57.212673280 163.0
57.217597136 160.0
57.222520992 146.0
57.227444848 135.0
57.232368704 148.0
57.237292560 159.0
57.242216416 167.0
57.247140272 173.0
57.252064128 134.0
57.256987984 145.0
57.261911840 165.0
57.266835696 163.0
57.271759552 132.0
57.276683408 145.0
57.281607264 149.0
57.286531120 168.0
57.291454976 155.0
57.296378832 141.0
57.301302688 164.0
57.306226544 157.0
57.311150400 156.0
57.316074256 145.0
57.320998112 143.0
57.325921968 157.0
57.330845824 176.0
57.335769680 151.0
57.340693536 171.0
57.345617392 187.0
57.350541248 153.0
57.355465104 150.0
57.360388960 165.0
57.365312816 147.0
57.370236672 136.0
57.375160528 181.0
57.380084384 144.0
57.385008240 148.0
57.389932096 142.0
57.394855952 150.0
57.399779808 139.0
57.404703664 180.0
57.409627521 152.0
57.414551377 162.0
57.419475233 146.0
57.424399089 150.0
57.429322945 150.0
57.434246801 166.0
57.439170657 170.0
57.444094513 168.0
57.449018369 162.0
57.453942225 157.0
57.458866081 157.0
57.463789937 156.0
57.468713793 163.0
57.473637649 126.0
57.478561505 140.0
57.483485361 157.0
57.488409217 144.0
57.493333073 179.0
57.498256929 162.0
57.503180785 160.0
57.508104641 152.0
57.513028497 183.0
57.517952353 137.0
57.522876209 165.0
57.527800065 164.0
57.532723921 175.0
57.537647777 155.0
57.542571633 169.0
57.547495489 139.0
57.552419345 170.0
57.557343201 180.0
57.562267057 140.0
57.567190913 164.0
57.572114769 159.0
57.577038625 147.0
57.581962481 148.0
57.586886337 171.0
57.591810193 158.0
57.596734049 155.0
57.601657905 152.0
57.606581761 181.0
57.611505617 161.0
57.616429473 153.0
57.621353329 156.0
57.626277185 159.0
57.631201041 152.0
57.636124897 180.0
57.641048753 162.0
57.645972609 148.0
57.650896465 154.0
57.655820321 146.0
57.660744177 166.0
57.665668033 142.0
57.670591889 141.0
57.675515745 170.0
57.680439601 165.0
57.685363457 152.0
57.690287313 133.0
57.695211169 172.0
57.700135025 135.0
57.705058881 189.0
57.709982737 165.0
57.714906593 153.0
57.719830449 173.0
57.724754305 163.0
57.729678161 146.0
57.734602017 166.0
57.739525873 149.0
57.744449729 148.0
57.749373585 158.0
57.754297441 138.0
57.759221297 183.0
57.764145153 130.0
57.769069009 171.0
57.773992865 167.0
57.778916721 181.0
57.783840578 177.0
57.788764434 154.0
57.793688290 149.0
57.798612146 139.0
57.803536002 157.0
57.808459858 173.0
57.813383714 177.0
57.818307570 161.0
57.823231426 157.0
57.828155282 168.0
57.833079138 164.0
57.838002994 167.0
57.842926850 156.0
57.847850706 136.0
57.852774562 164.0
57.857698418 168.0
57.862622274 140.0
57.867546130 145.0
57.872469986 161.0
57.877393842 157.0
57.882317698 146.0
57.887241554 176.0
57.892165410 155.0
57.897089266 172.0
57.902013122 132.0
57.906936978 185.0
57.911860834 164.0
57.916784690 176.0
57.921708546 153.0
57.926632402 177.0
57.931556258 145.0
57.936480114 149.0
57.941403970 164.0
57.946327826 168.0
57.951251682 149.0
57.956175538 169.0
57.961099394 165.0
57.966023250 184.0
57.970947106 161.0
57.975870962 157.0
57.980794818 131.0
57.985718674 140.0
57.990642530 166.0
57.995566386 171.0
58.000490242 168.0
58.005414098 162.0
58.010337954 169.0
58.015261810 151.0
58.020185666 156.0
58.025109522 131.0
58.030033378 156.0
58.034957234 150.0
58.039881090 171.0
58.044804946 147.0
58.049728802 152.0
58.054652658 165.0
58.059576514 179.0
58.064500370 163.0
58.069424226 152.0
58.074348082 154.0
58.079271938 158.0
58.084195794 179.0
58.089119650 153.0
58.094043506 175.0
58.098967362 151.0
58.103891218 154.0
58.108815074 152.0
58.113738930 176.0
58.118662786 155.0
58.123586642 163.0
58.128510498 145.0
58.133434354 152.0
58.138358210 168.0
58.143282066 165.0
58.148205922 138.0
58.153129779 161.0
58.158053635 146.0
58.162977491 161.0
58.167901347 161.0
58.172825203 152.0
58.177749059 178.0
58.182672915 174.0
58.187596771 162.0
58.192520627 164.0
58.197444483 166.0
58.202368339 163.0
58.207292195 168.0
58.212216051 143.0
58.217139907 137.0
58.222063763 131.0
58.226987619 144.0
58.231911475 139.0
58.236835331 155.0
58.241759187 143.0
58.246683043 141.0
58.251606899 169.0
58.256530755 159.0
58.261454611 160.0
58.266378467 153.0
58.271302323 133.0
58.276226179 157.0
58.281150035 172.0
58.286073891 159.0
58.290997747 171.0
58.295921603 137.0
58.300845459 161.0
58.305769315 156.0
58.310693171 180.0
58.315617027 153.0
58.320540883 154.0
58.325464739 146.0
58.330388595 174.0
58.335312451 178.0
58.340236307 157.0
58.345160163 147.0
58.350084019 194.0
58.355007875 152.0
58.359931731 163.0
58.364855587 139.0
58.369779443 161.0
58.374703299 173.0
58.379627155 146.0
58.384551011 148.0
58.389474867 172.0
58.394398723 153.0
58.399322579 148.0
58.404246435 146.0
58.409170291 159.0
58.414094147 155.0
58.419018003 164.0
58.423941859 139.0
58.428865715 154.0
58.433789571 154.0
58.438713427 156.0
58.443637283 161.0
58.448561139 174.0
58.453484995 132.0
58.458408851 147.0
58.463332707 155.0
58.468256563 159.0
58.473180419 144.0
58.478104275 162.0
58.483028131 161.0
58.487951987 149.0
58.492875843 143.0
58.497799699 157.0
58.502723555 136.0
58.507647411 177.0
58.512571267 159.0
58.517495123 142.0
58.522418980 163.0
58.527342836 148.0
58.532266692 163.0
58.537190548 162.0
58.542114404 146.0
58.547038260 146.0
58.551962116 169.0
58.556885972 146.0
58.561809828 151.0
58.566733684 159.0
58.571657540 131.0
58.576581396 133.0
58.581505252 138.0
58.586429108 154.0
58.591352964 151.0
58.596276820 155.0
58.601200676 159.0
58.606124532 130.0
58.611048388 147.0
58.615972244 165.0
58.620896100 149.0
58.625819956 152.0
58.630743812 181.0
58.635667668 146.0
58.640591524 169.0
58.645515380 177.0
58.650439236 160.0
58.655363092 163.0
58.660286948 153.0
58.665210804 161.0
58.670134660 143.0
58.675058516 157.0
58.679982372 171.0
58.684906228 164.0
58.689830084 162.0
58.694753940 170.0
58.699677796 161.0
58.704601652 166.0
58.709525508 145.0
58.714449364 172.0
58.719373220 147.0
58.724297076 158.0
58.729220932 148.0
58.734144788 156.0
58.739068644 155.0
58.743992500 172.0
58.748916356 154.0
58.753840212 156.0
58.758764068 150.0
58.763687924 151.0
58.768611780 154.0
58.773535636 150.0
58.778459492 170.0
58.783383348 168.0
58.788307204 146.0
58.793231060 179.0
58.798154916 149.0
58.803078772 175.0
58.808002628 151.0
58.812926484 182.0
58.817850340 169.0
58.822774196 175.0
58.827698052 169.0
58.832621908 171.0
58.837545764 153.0
58.842469620 164.0
58.847393476 171.0
58.852317332 161.0
58.857241188 158.0
58.862165044 180.0
58.867088900 158.0
58.872012756 143.0
58.876936612 155.0
58.881860468 168.0
58.886784324 163.0
58.891708181 161.0
58.896632037 158.0
58.901555893 163.0
58.906479749 147.0
58.911403605 149.0
58.916327461 152.0
58.921251317 164.0
58.926175173 134.0
58.931099029 163.0
58.936022885 154.0
58.940946741 145.0
58.945870597 155.0
58.950794453 174.0
58.955718309 159.0
58.960642165 153.0
58.965566021 169.0
58.970489877 155.0
58.975413733 149.0
58.980337589 148.0
58.985261445 167.0
58.990185301 151.0
58.995109157 153.0
59.000033013 151.0
59.004956869 151.0
59.009880725 164.0
59.014804581 186.0
59.019728437 143.0
59.024652293 150.0
59.029576149 171.0
59.034500005 164.0
59.039423861 159.0
59.044347717 145.0
59.049271573 161.0
59.054195429 141.0
59.059119285 178.0
59.064043141 158.0
59.068966997 167.0
59.073890853 174.0
59.078814709 182.0
59.083738565 154.0
59.088662421 180.0
59.093586277 152.0
59.098510133 140.0
59.103433989 153.0
59.108357845 155.0
59.113281701 138.0
59.118205557 145.0
59.123129413 164.0
59.128053269 162.0
59.132977125 151.0
59.137900981 148.0
59.142824837 172.0
59.147748693 178.0
59.152672549 132.0
59.157596405 161.0
59.162520261 144.0
59.167444117 156.0
59.172367973 171.0
59.177291829 158.0
59.182215685 150.0
59.187139541 156.0
59.192063397 155.0
59.196987253 157.0
59.201911109 135.0
59.206834965 145.0
59.211758821 168.0
59.216682677 156.0
59.221606533 153.0
59.226530389 165.0
59.231454245 172.0
59.236378101 154.0
59.241301957 171.0
59.246225813 154.0
59.251149669 160.0
59.256073525 153.0
59.260997382 120.0
59.265921238 150.0
59.270845094 161.0
59.275768950 175.0
59.280692806 162.0
59.285616662 159.0
59.290540518 181.0
59.295464374 174.0
59.300388230 162.0
59.305312086 146.0
59.310235942 169.0
59.315159798 170.0
59.320083654 154.0
59.325007510 168.0
59.329931366 140.0
59.334855222 137.0
59.339779078 163.0
59.344702934 169.0
59.349626790 142.0
59.354550646 155.0
59.359474502 156.0
59.364398358 138.0
59.369322214 153.0
59.374246070 174.0
59.379169926 158.0
59.384093782 133.0
59.389017638 159.0
59.393941494 173.0
59.398865350 163.0
59.403789206 152.0
59.408713062 192.0
59.413636918 162.0
59.418560774 171.0
59.423484630 171.0
59.428408486 175.0
59.433332342 149.0
59.438256198 148.0
59.443180054 148.0
59.448103910 160.0
59.453027766 178.0
59.457951622 166.0
59.462875478 148.0
59.467799334 169.0
59.472723190 175.0
59.477647046 165.0
59.482570902 161.0
59.487494758 154.0
59.492418614 154.0
59.497342470 165.0
59.502266326 153.0
59.507190182 155.0
59.512114038 168.0
59.517037894 168.0
59.521961750 145.0
59.526885606 150.0
59.531809462 166.0
59.536733318 165.0
59.541657174 173.0
59.546581030 162.0
59.551504886 167.0
59.556428742 171.0
59.561352598 169.0
59.566276454 169.0
59.571200310 129.0
59.576124166 155.0
59.581048022 163.0
59.585971878 164.0
59.590895734 159.0
59.595819590 165.0
59.600743446 176.0
59.605667302 146.0
59.610591158 151.0
59.615515014 149.0
59.620438870 173.0
59.625362726 175.0
59.630286582 138.0
59.635210439 148.0
59.640134295 165.0
59.645058151 152.0
59.649982007 163.0
59.654905863 164.0
59.659829719 152.0
59.664753575 169.0
59.669677431 142.0
59.674601287 157.0
59.679525143 145.0
59.684448999 157.0
59.689372855 160.0
59.694296711 167.0
59.699220567 149.0
59.704144423 172.0
59.709068279 170.0
59.713992135 158.0
59.718915991 197.0
59.723839847 160.0
59.728763703 133.0
59.733687559 154.0
59.738611415 139.0
59.743535271 181.0
59.748459127 134.0
59.753382983 141.0
59.758306839 168.0
59.763230695 151.0
59.768154551 159.0
59.773078407 189.0
59.778002263 148.0
59.782926119 145.0
59.787849975 172.0
59.792773831 145.0
59.797697687 156.0
59.802621543 176.0
59.807545399 162.0
59.812469255 144.0
59.817393111 143.0
59.822316967 140.0
59.827240823 174.0
59.832164679 183.0
59.837088535 162.0
59.842012391 156.0
59.846936247 168.0
59.851860103 143.0
59.856783959 155.0
59.861707815 179.0
59.866631671 148.0
59.871555527 156.0
59.876479383 140.0
59.881403239 158.0
59.886327095 162.0
59.891250951 154.0
59.896174807 159.0
59.901098663 170.0
59.906022519 154.0
59.910946375 159.0
59.915870231 165.0
59.920794087 153.0
59.925717943 183.0
59.930641799 171.0
59.935565655 157.0
59.940489511 162.0
59.945413367 151.0
59.950337223 156.0
59.955261079 151.0
59.960184935 159.0
59.965108791 143.0
59.970032647 149.0
59.974956503 155.0
59.979880359 171.0
59.984804215 146.0
59.989728071 150.0
59.994651927 169.0
59.999575783 148.0
60.004499640 153.0
60.009423496 173.0
60.014347352 172.0
60.019271208 156.0
60.024195064 166.0
60.029118920 168.0
60.034042776 151.0
60.038966632 170.0
60.043890488 150.0
60.048814344 162.0
60.053738200 156.0
60.058662056 159.0
60.063585912 169.0
60.068509768 185.0
60.073433624 157.0
60.078357480 162.0
60.083281336 182.0
60.088205192 171.0
60.093129048 146.0
60.098052904 140.0
60.102976760 166.0
60.107900616 163.0
60.112824472 158.0
60.117748328 168.0
60.122672184 167.0
60.127596040 176.0
60.132519896 159.0
60.137443752 157.0
60.142367608 169.0
60.147291464 149.0
60.152215320 171.0
60.157139176 177.0
60.162063032 163.0
60.166986888 138.0
60.171910744 153.0
60.176834600 145.0
60.181758456 141.0
60.186682312 171.0
60.191606168 166.0
60.196530024 163.0
60.201453880 160.0
60.206377736 188.0
60.211301592 145.0
60.216225448 168.0
60.221149304 179.0
60.226073160 135.0
60.230997016 174.0
60.235920872 145.0
60.240844728 171.0
60.245768584 181.0
60.250692440 146.0
60.255616296 164.0
60.260540152 179.0
60.265464008 150.0
60.270387864 158.0
60.275311720 164.0
60.280235576 171.0
60.285159432 166.0
60.290083288 180.0
60.295007144 152.0
60.299931000 166.0
60.304854856 202.0
60.309778712 167.0
60.314702568 181.0
60.319626424 172.0
60.324550280 155.0
60.329474136 162.0
60.334397992 175.0
60.339321848 147.0
60.344245704 182.0
60.349169560 179.0
60.354093416 175.0
60.359017272 151.0
60.363941128 170.0
60.368864984 164.0
60.373788841 180.0
60.378712697 164.0
60.383636553 180.0
60.388560409 181.0
60.393484265 168.0
60.398408121 161.0
60.403331977 140.0
60.408255833 165.0
60.413179689 159.0
60.418103545 173.0
60.423027401 176.0
60.427951257 165.0
60.432875113 180.0
60.437798969 168.0
60.442722825 153.0
60.447646681 175.0
60.452570537 178.0
60.457494393 160.0
60.462418249 179.0
60.467342105 166.0
60.472265961 170.0
60.477189817 152.0
60.482113673 178.0
60.487037529 173.0
60.491961385 168.0
60.496885241 175.0
60.501809097 157.0
60.506732953 164.0
60.511656809 158.0
60.516580665 162.0
60.521504521 177.0
60.526428377 175.0
60.531352233 194.0
60.536276089 168.0
60.541199945 170.0
60.546123801 169.0
60.551047657 154.0
60.555971513 155.0
60.560895369 149.0
60.565819225 153.0
60.570743081 175.0
60.575666937 164.0
60.580590793 162.0
60.585514649 164.0
60.590438505 167.0
60.595362361 149.0
60.600286217 171.0
60.605210073 176.0
60.610133929 179.0
60.615057785 168.0
60.619981641 201.0
60.624905497 166.0
60.629829353 161.0
60.634753209 193.0
60.639677065 152.0
60.644600921 179.0
60.649524777 181.0
60.654448633 162.0
60.659372489 167.0
60.664296345 176.0
60.669220201 181.0
60.674144057 189.0
60.679067913 162.0
60.683991769 184.0
60.688915625 186.0
60.693839481 180.0
60.698763337 184.0
60.703687193 181.0
60.708611049 190.0
60.713534905 217.0
60.718458761 180.0
60.723382617 208.0
60.728306473 258.0
60.733230329 209.0
60.738154185 234.0
60.743078042 196.0
60.748001898 297.0
60.752925754 308.0
60.757849610 357.0
60.762773466 324.0
60.767697322 386.0
60.772621178 405.0
60.777545034 454.0
60.782468890 493.0
60.787392746 540.0
60.792316602 653.0
60.797240458 704.0
60.802164314 816.0
60.807088170 914.0
60.812012026 984.0
60.816935882 1082.0
60.821859738 1175.0
60.826783594 1196.0
60.831707450 1276.0
60.836631306 1274.0
60.841555162 1384.0
60.846479018 1256.0
60.851402874 1233.0
60.856326730 1206.0
60.861250586 1014.0
60.866174442 1030.0
60.871098298 876.0
60.876022154 783.0
60.880946010 712.0
60.885869866 591.0
60.890793722 546.0
60.895717578 520.0
60.900641434 446.0
60.905565290 445.0
60.910489146 428.0
60.915413002 410.0
60.920336858 422.0
60.925260714 382.0
60.930184570 376.0
60.935108426 333.0
60.940032282 315.0
60.944956138 297.0
60.949879994 326.0
60.954803850 262.0
60.959727706 233.0
60.964651562 237.0
60.969575418 236.0
60.974499274 233.0
60.979423130 213.0
60.984346986 233.0
60.989270842 222.0
60.994194698 212.0
60.999118554 205.0
61.004042410 204.0
61.008966266 234.0
61.013890122 186.0
61.018813978 211.0
61.023737834 205.0
61.028661690 190.0
61.033585546 201.0
61.038509402 166.0
61.043433258 204.0
61.048357114 197.0
61.053280970 189.0
61.058204826 224.0
61.063128682 169.0
61.068052538 191.0
61.072976394 196.0
61.077900250 192.0
61.082824106 213.0
61.087747962 193.0
61.092671818 189.0
61.097595674 199.0
61.102519530 200.0
61.107443386 177.0
61.112367243 187.0
61.117291099 192.0
61.122214955 180.0
61.127138811 183.0
61.132062667 176.0
61.136986523 172.0
61.141910379 196.0
61.146834235 160.0
61.151758091 194.0
61.156681947 171.0
61.161605803 190.0
61.166529659 192.0
61.171453515 167.0
61.176377371 195.0
61.181301227 179.0
61.186225083 189.0
61.191148939 164.0
61.196072795 171.0
61.200996651 187.0
61.205920507 175.0
61.210844363 168.0
61.215768219 199.0
61.220692075 168.0
61.225615931 186.0
61.230539787 194.0
61.235463643 168.0
61.240387499 175.0
61.245311355 194.0
61.250235211 169.0
61.255159067 151.0
61.260082923 184.0
61.265006779 165.0
61.269930635 189.0
61.274854491 172.0
61.279778347 153.0
61.284702203 157.0
61.289626059 169.0
61.294549915 176.0
61.299473771 205.0
61.304397627 183.0
61.309321483 165.0
61.314245339 179.0
61.319169195 160.0
61.324093051 169.0
61.329016907 181.0
61.333940763 184.0
61.338864619 170.0
61.343788475 163.0
61.348712331 154.0
61.353636187 187.0
61.358560043 180.0
61.363483899 156.0
61.368407755 169.0
61.373331611 174.0
61.378255467 165.0
61.383179323 184.0
61.388103179 176.0
61.393027035 172.0
61.397950891 185.0
61.402874747 160.0
61.407798603 155.0
61.412722459 177.0
61.417646315 194.0
61.422570171 134.0
61.427494027 190.0
61.432417883 190.0
61.437341739 163.0
61.442265595 167.0
61.447189451 166.0
61.452113307 186.0
61.457037163 166.0
61.461961019 179.0
61.466884875 158.0
61.471808731 147.0
61.476732587 167.0
61.481656443 174.0
61.486580300 185.0
61.491504156 174.0
61.496428012 189.0
61.501351868 170.0
61.506275724 182.0
61.511199580 142.0
61.516123436 173.0
61.521047292 170.0
61.525971148 152.0
61.530895004 172.0
61.535818860 173.0
61.540742716 180.0
61.545666572 188.0
61.550590428 168.0
61.555514284 181.0
61.560438140 155.0
61.565361996 175.0
61.570285852 177.0
61.575209708 156.0
61.580133564 180.0
61.585057420 175.0
61.589981276 191.0
61.594905132 169.0
61.599828988 185.0
61.604752844 171.0
61.609676700 180.0
61.614600556 171.0
61.619524412 179.0
61.624448268 171.0
61.629372124 174.0
61.634295980 180.0
61.639219836 173.0
61.644143692 167.0
61.649067548 163.0
61.653991404 177.0
61.658915260 155.0
61.663839116 166.0
61.668762972 186.0
61.673686828 174.0
61.678610684 156.0
61.683534540 185.0
61.688458396 176.0
61.693382252 162.0
61.698306108 165.0
61.703229964 147.0
61.708153820 151.0
61.713077676 182.0
61.718001532 145.0
61.722925388 169.0
61.727849244 169.0
61.732773100 171.0
61.737696956 173.0
61.742620812 168.0
61.747544668 171.0
61.752468524 175.0
61.757392380 164.0
61.762316236 150.0
61.767240092 146.0
61.772163948 172.0
61.777087804 161.0
61.782011660 163.0
61.786935516 164.0
61.791859372 155.0
61.796783228 174.0
61.801707084 179.0
61.806630940 189.0
61.811554796 182.0
61.816478652 146.0
61.821402508 177.0
61.826326364 165.0
61.831250220 187.0
61.836174076 168.0
61.841097932 169.0
61.846021788 186.0
61.850945644 160.0
61.855869501 179.0
61.860793357 172.0
61.865717213 193.0
61.870641069 176.0
61.875564925 155.0
61.880488781 181.0
61.885412637 152.0
61.890336493 172.0
61.895260349 196.0
61.900184205 182.0
61.905108061 157.0
61.910031917 182.0
61.914955773 192.0
61.919879629 185.0
61.924803485 156.0
61.929727341 186.0
61.934651197 181.0
61.939575053 170.0
61.944498909 167.0
61.949422765 166.0
61.954346621 168.0
61.959270477 182.0
61.964194333 200.0
61.969118189 149.0
61.974042045 175.0
61.978965901 194.0
61.983889757 150.0
61.988813613 165.0
61.993737469 175.0
61.998661325 180.0
62.003585181 160.0
62.008509037 177.0
62.013432893 171.0
62.018356749 193.0
62.023280605 164.0
62.028204461 186.0
62.033128317 165.0
62.038052173 157.0
62.042976029 172.0
62.047899885 145.0
62.052823741 181.0
62.057747597 166.0
62.062671453 177.0
62.067595309 173.0
62.072519165 179.0
62.077443021 186.0
62.082366877 185.0
62.087290733 184.0
62.092214589 180.0
62.097138445 174.0
62.102062301 188.0
62.106986157 152.0
62.111910013 153.0
62.116833869 161.0
62.121757725 193.0
62.126681581 189.0
62.131605437 158.0
62.136529293 165.0
62.141453149 166.0
62.146377005 178.0
62.151300861 169.0
62.156224717 161.0
62.161148573 174.0
62.166072429 166.0
62.170996285 150.0
62.175920141 191.0
62.180843997 156.0
62.185767853 158.0
62.190691709 163.0
62.195615565 166.0
62.200539421 171.0
62.205463277 177.0
62.210387133 170.0
62.215310989 187.0
62.220234845 168.0
62.225158702 187.0
62.230082558 182.0
62.235006414 163.0
62.239930270 166.0
62.244854126 167.0
62.249777982 171.0
62.254701838 148.0
62.259625694 176.0
62.264549550 174.0
62.269473406 158.0
62.274397262 175.0
62.279321118 181.0
62.284244974 184.0
62.289168830 194.0
62.294092686 174.0
62.299016542 178.0
62.303940398 176.0
62.308864254 186.0
62.313788110 180.0
62.318711966 190.0
62.323635822 167.0
62.328559678 166.0
62.333483534 192.0
62.338407390 177.0
62.343331246 164.0
62.348255102 164.0
62.353178958 178.0
62.358102814 176.0
62.363026670 194.0
62.367950526 166.0
62.372874382 184.0
62.377798238 156.0
62.382722094 169.0
62.387645950 173.0
62.392569806 194.0
62.397493662 182.0
62.402417518 188.0
62.407341374 139.0
62.412265230 188.0
62.417189086 192.0
62.422112942 176.0
62.427036798 187.0
62.431960654 171.0
62.436884510 185.0
62.441808366 176.0
62.446732222 182.0
62.451656078 177.0
62.456579934 182.0
62.461503790 192.0
62.466427646 183.0
62.471351502 174.0
62.476275358 167.0
62.481199214 199.0
62.486123070 187.0
62.491046926 188.0
62.495970782 172.0
62.500894638 190.0
62.505818494 166.0
62.510742350 211.0
62.515666206 176.0
62.520590062 160.0
62.525513918 176.0
62.530437774 176.0
62.535361630 173.0
62.540285486 177.0
62.545209342 176.0
62.550133198 180.0
62.555057054 186.0
62.559980910 182.0
62.564904766 202.0
62.569828622 186.0
62.574752478 187.0
62.579676334 160.0
62.584600190 171.0
62.589524046 176.0
62.594447903 185.0
62.599371759 153.0
62.604295615 165.0
62.609219471 172.0
62.614143327 172.0
62.619067183 163.0
62.623991039 179.0
62.628914895 193.0
62.633838751 204.0
62.638762607 163.0
62.643686463 170.0
62.648610319 185.0
62.653534175 187.0
62.658458031 203.0
62.663381887 192.0
62.668305743 166.0
62.673229599 194.0
62.678153455 173.0
62.683077311 170.0
62.688001167 190.0
62.692925023 174.0
62.697848879 172.0
62.702772735 163.0
62.707696591 166.0
62.712620447 206.0
62.717544303 190.0
62.722468159 191.0
62.727392015 185.0
62.732315871 188.0
62.737239727 185.0
62.742163583 162.0
62.747087439 173.0
62.752011295 158.0
62.756935151 176.0
62.761859007 172.0
62.766782863 172.0
62.771706719 175.0
62.776630575 186.0
62.781554431 173.0
62.786478287 186.0
62.791402143 175.0
62.796325999 185.0
62.801249855 175.0
62.806173711 183.0
62.811097567 165.0
62.816021423 197.0
62.820945279 198.0
62.825869135 217.0
62.830792991 180.0
62.835716847 186.0
62.840640703 181.0
62.845564559 178.0
62.850488415 179.0
62.855412271 189.0
62.860336127 181.0
62.865259983 186.0
62.870183839 190.0
62.875107695 168.0
62.880031551 186.0
62.884955407 181.0
62.889879263 176.0
62.894803119 163.0
62.899726975 172.0
62.904650831 186.0
62.909574687 177.0
62.914498543 173.0
62.919422399 202.0
62.924346255 189.0
62.929270111 179.0
62.934193967 193.0
62.939117823 185.0
62.944041679 192.0
62.948965535 208.0
62.953889391 169.0
62.958813247 191.0
62.963737104 207.0
62.968660960 190.0
62.973584816 167.0
62.978508672 189.0
62.983432528 190.0
62.988356384 183.0
62.993280240 209.0
62.998204096 191.0
63.003127952 159.0
63.008051808 204.0
63.012975664 208.0
63.017899520 231.0
63.022823376 206.0
63.027747232 178.0
63.032671088 172.0
63.037594944 173.0
63.042518800 186.0
63.047442656 186.0
63.052366512 213.0
63.057290368 183.0
63.062214224 212.0
63.067138080 186.0
63.072061936 230.0
63.076985792 212.0
63.081909648 175.0
63.086833504 186.0
63.091757360 207.0
63.096681216 180.0
63.101605072 203.0
63.106528928 185.0
63.111452784 211.0
63.116376640 194.0
63.121300496 190.0
63.126224352 209.0
63.131148208 198.0
63.136072064 189.0
63.140995920 206.0
63.145919776 193.0
63.150843632 187.0
63.155767488 176.0
63.160691344 215.0
63.165615200 192.0
63.170539056 181.0
63.175462912 182.0
63.180386768 200.0
63.185310624 223.0
63.190234480 203.0
63.195158336 215.0
63.200082192 187.0
63.205006048 173.0
63.209929904 192.0
63.214853760 196.0
63.219777616 189.0
63.224701472 214.0
63.229625328 173.0
63.234549184 195.0
63.239473040 183.0
63.244396896 200.0
63.249320752 209.0
63.254244608 188.0
63.259168464 224.0
63.264092320 207.0
63.269016176 188.0
63.273940032 213.0
63.278863888 183.0
63.283787744 188.0
63.288711600 178.0
63.293635456 207.0
63.298559312 198.0
63.303483168 187.0
63.308407024 196.0
63.313330880 203.0
63.318254736 216.0
63.323178592 188.0
63.328102448 190.0
63.333026304 206.0
63.337950161 205.0
63.342874017 204.0
63.347797873 212.0
63.352721729 220.0
63.357645585 201.0
63.362569441 216.0
63.367493297 210.0
63.372417153 205.0
63.377341009 246.0
63.382264865 236.0
63.387188721 226.0
63.392112577 187.0
63.397036433 217.0
63.401960289 219.0
63.406884145 211.0
63.411808001 220.0
63.416731857 218.0
63.421655713 190.0
63.426579569 227.0
63.431503425 190.0
63.436427281 229.0
63.441351137 197.0
63.446274993 217.0
63.451198849 241.0
63.456122705 189.0
63.461046561 215.0
63.465970417 197.0
63.470894273 227.0
63.475818129 213.0
63.480741985 223.0
63.485665841 197.0
63.490589697 220.0
63.495513553 227.0
63.500437409 203.0
63.505361265 222.0
63.510285121 211.0
63.515208977 190.0
63.520132833 230.0
63.525056689 233.0
63.529980545 236.0
63.534904401 243.0
63.539828257 225.0
63.544752113 215.0
63.549675969 231.0
63.554599825 248.0
63.559523681 244.0
63.564447537 212.0
63.569371393 237.0
63.574295249 235.0
63.579219105 208.0
63.584142961 237.0
63.589066817 223.0
63.593990673 226.0
63.598914529 244.0
63.603838385 237.0
63.608762241 223.0
63.613686097 216.0
63.618609953 243.0
63.623533809 213.0
63.628457665 258.0
63.633381521 219.0
63.638305377 243.0
63.643229233 231.0
63.648153089 244.0
63.653076945 248.0
63.658000801 225.0
63.662924657 233.0
63.667848513 237.0
63.672772369 219.0
63.677696225 248.0
63.682620081 275.0
63.687543937 243.0
63.692467793 241.0
63.697391649 227.0
63.702315505 255.0
63.707239362 240.0
63.712163218 246.0
63.717087074 227.0
63.722010930 273.0
63.726934786 231.0
63.731858642 239.0
63.736782498 275.0
63.741706354 237.0
63.746630210 247.0
63.751554066 240.0
63.756477922 259.0
63.761401778 237.0
63.766325634 270.0
63.771249490 221.0
63.776173346 274.0
63.781097202 264.0
63.786021058 261.0
63.790944914 269.0
63.795868770 269.0
63.800792626 261.0
63.805716482 274.0
63.810640338 264.0
63.815564194 304.0
63.820488050 295.0
63.825411906 306.0
63.830335762 290.0
63.835259618 264.0
63.840183474 269.0
63.845107330 282.0
63.850031186 281.0
63.854955042 292.0
63.859878898 286.0
63.864802754 314.0
63.869726610 285.0
63.874650466 299.0
63.879574322 302.0
63.884498178 337.0
63.889422034 300.0
63.894345890 281.0
63.899269746 349.0
63.904193602 324.0
63.909117458 335.0
63.914041314 294.0
63.918965170 343.0
63.923889026 301.0
63.928812882 304.0
63.933736738 328.0
63.938660594 332.0
63.943584450 316.0
63.948508306 313.0
63.953432162 324.0
63.958356018 341.0
63.963279874 339.0
63.968203730 299.0
63.973127586 334.0
63.978051442 365.0
63.982975298 363.0
63.987899154 376.0
63.992823010 406.0
63.997746866 365.0
64.002670722 395.0
64.007594578 376.0
64.012518434 399.0
64.017442290 379.0
64.022366146 408.0
64.027290002 386.0
64.032213858 419.0
64.037137714 416.0
64.042061570 439.0
64.046985426 414.0
64.051909282 406.0
64.056833138 401.0
64.061756994 458.0
64.066680850 416.0
64.071604706 472.0
64.076528563 455.0
64.081452419 457.0
64.086376275 458.0
64.091300131 481.0
64.096223987 472.0
64.101147843 478.0
64.106071699 500.0
64.110995555 536.0
64.115919411 482.0
64.120843267 566.0
64.125767123 504.0
64.130690979 537.0
64.135614835 533.0
64.140538691 578.0
64.145462547 573.0
64.150386403 608.0
64.155310259 608.0
64.160234115 587.0
64.165157971 617.0
64.170081827 578.0
64.175005683 618.0
64.179929539 577.0
64.184853395 652.0
64.189777251 684.0
64.194701107 672.0
64.199624963 698.0
64.204548819 717.0
64.209472675 736.0
64.214396531 758.0
64.219320387 732.0
64.224244243 770.0
64.229168099 797.0
64.234091955 761.0
64.239015811 761.0
64.243939667 804.0
64.248863523 809.0
64.253787379 853.0
64.258711235 802.0
64.263635091 868.0
64.268558947 830.0
64.273482803 834.0
64.278406659 877.0
64.283330515 901.0
64.288254371 921.0
64.293178227 911.0
64.298102083 950.0
64.303025939 985.0
64.307949795 1004.0
64.312873651 1034.0
64.317797507 992.0
64.322721363 954.0
64.327645219 1024.0
64.332569075 1062.0
64.337492931 1070.0
64.342416787 1094.0
64.347340643 1102.0
64.352264499 1103.0
64.357188355 1034.0
64.362112211 1090.0
64.367036067 1047.0
64.371959923 1147.0
64.376883779 1147.0
64.381807635 1124.0
64.386731491 1179.0
64.391655347 1155.0
64.396579203 1174.0
64.401503059 1206.0
64.406426915 1120.0
64.411350771 1171.0
64.416274627 1238.0
64.421198483 1140.0
64.426122339 1194.0
64.431046195 1208.0
64.435970051 1174.0
64.440893907 1151.0
64.445817764 1173.0
64.450741620 1207.0
64.455665476 1245.0
64.460589332 1235.0
64.465513188 1185.0
64.470437044 1190.0
64.475360900 1176.0
64.480284756 1159.0
64.485208612 1211.0
64.490132468 1131.0
64.495056324 1153.0
64.499980180 1164.0
64.504904036 1180.0
64.509827892 1128.0
64.514751748 1116.0
64.519675604 1094.0
64.524599460 1169.0
64.529523316 1140.0
64.534447172 1054.0
64.539371028 1115.0
64.544294884 1050.0
64.549218740 1125.0
64.554142596 1080.0
64.559066452 1046.0
64.563990308 1043.0
64.568914164 1049.0
64.573838020 1069.0
64.578761876 1021.0
64.583685732 1081.0
64.588609588 988.0
64.593533444 962.0
64.598457300 984.0
64.603381156 1012.0
64.608305012 1012.0
64.613228868 930.0
64.618152724 935.0
64.623076580 955.0
64.628000436 935.0
64.632924292 975.0
64.637848148 912.0
64.642772004 919.0
64.647695860 905.0
64.652619716 856.0
64.657543572 845.0
64.662467428 807.0
64.667391284 825.0
64.672315140 846.0
64.677238996 814.0
64.682162852 781.0
64.687086708 808.0
64.692010564 753.0
64.696934420 782.0
64.701858276 688.0
64.706782132 806.0
64.711705988 777.0
64.716629844 697.0
64.721553700 741.0
64.726477556 710.0
64.731401412 705.0
64.736325268 678.0
64.741249124 694.0
64.746172980 663.0
64.751096836 710.0
64.756020692 623.0
64.760944548 650.0
64.765868404 643.0
64.770792260 613.0
64.775716116 627.0
64.780639972 576.0
64.785563828 583.0
64.790487684 619.0
64.795411540 626.0
64.800335396 579.0
64.805259252 543.0
64.810183108 519.0
64.815106965 570.0
64.820030821 545.0
64.824954677 559.0
64.829878533 548.0
64.834802389 544.0
64.839726245 581.0
64.844650101 508.0
64.849573957 490.0
64.854497813 496.0
64.859421669 526.0
64.864345525 441.0
64.869269381 503.0
64.874193237 484.0
64.879117093 506.0
64.884040949 442.0
64.888964805 460.0
64.893888661 461.0
64.898812517 456.0
64.903736373 440.0
64.908660229 442.0
64.913584085 433.0
64.918507941 443.0
64.923431797 453.0
64.928355653 446.0
64.933279509 414.0
64.938203365 448.0
64.943127221 443.0
64.948051077 453.0
64.952974933 432.0
64.957898789 430.0
64.962822645 406.0
64.967746501 416.0
64.972670357 393.0
64.977594213 409.0
64.982518069 403.0
64.987441925 390.0
64.992365781 404.0
64.997289637 358.0
65.002213493 361.0
65.007137349 361.0
65.012061205 373.0
65.016985061 398.0
65.021908917 353.0
65.026832773 340.0
65.031756629 362.0
65.036680485 338.0
65.041604341 362.0
65.046528197 338.0
65.051452053 306.0
65.056375909 342.0
65.061299765 348.0
65.066223621 308.0
65.071147477 354.0
65.076071333 299.0
65.080995189 327.0
65.085919045 325.0
65.090842901 313.0
65.095766757 322.0
65.100690613 358.0
65.105614469 327.0
65.110538325 330.0
65.115462181 338.0
65.120386037 336.0
65.125309893 286.0
65.130233749 311.0
65.135157605 320.0
65.140081461 294.0
65.145005317 303.0
65.149929173 287.0
65.154853029 318.0
65.159776885 284.0
65.164700741 320.0
65.169624597 248.0
65.174548453 277.0
65.179472309 276.0
65.184396165 275.0
65.189320022 295.0
65.194243878 296.0
65.199167734 280.0
65.204091590 255.0
65.209015446 272.0
65.213939302 287.0
65.218863158 282.0
65.223787014 267.0
65.228710870 291.0
65.233634726 268.0
65.238558582 280.0
65.243482438 265.0
65.248406294 273.0
65.253330150 303.0
65.258254006 285.0
65.263177862 247.0
65.268101718 268.0
65.273025574 256.0
65.277949430 259.0
65.282873286 261.0
65.287797142 272.0
65.292720998 242.0
65.297644854 280.0
65.302568710 287.0
65.307492566 291.0
65.312416422 258.0
65.317340278 281.0
65.322264134 272.0
65.327187990 278.0
65.332111846 228.0
65.337035702 262.0
65.341959558 261.0
65.346883414 262.0
65.351807270 286.0
65.356731126 280.0
65.361654982 242.0
65.366578838 224.0
65.371502694 239.0
65.376426550 255.0
65.381350406 224.0
65.386274262 223.0
65.391198118 260.0
65.396121974 235.0
65.401045830 262.0
65.405969686 260.0
65.410893542 274.0
65.415817398 206.0
65.420741254 274.0
65.425665110 216.0
65.430588966 275.0
65.435512822 267.0
65.440436678 246.0
65.445360534 207.0
65.450284390 265.0
65.455208246 235.0
65.460132102 256.0
65.465055958 217.0
65.469979814 223.0
65.474903670 209.0
65.479827526 220.0
65.484751382 242.0
65.489675238 225.0
65.494599094 223.0
65.499522950 223.0
65.504446806 241.0
65.509370662 240.0
65.514294518 238.0
65.519218374 225.0
65.524142230 255.0
65.529066086 245.0
65.533989942 258.0
65.538913798 230.0
65.543837654 258.0
65.548761510 214.0
65.553685366 241.0
65.558609223 273.0
65.563533079 224.0
65.568456935 233.0
65.573380791 228.0
65.578304647 255.0
65.583228503 222.0
65.588152359 245.0
65.593076215 224.0
65.598000071 219.0
65.602923927 268.0
65.607847783 226.0
65.612771639 268.0
65.617695495 259.0
65.622619351 236.0
65.627543207 222.0
65.632467063 258.0
65.637390919 214.0
65.642314775 259.0
65.647238631 214.0
65.652162487 229.0
65.657086343 234.0
65.662010199 221.0
65.666934055 222.0
65.671857911 214.0
65.676781767 237.0
65.681705623 233.0
65.686629479 245.0
65.691553335 227.0
65.696477191 241.0
65.701401047 231.0
65.706324903 228.0
65.711248759 255.0
65.716172615 226.0
65.721096471 258.0
65.726020327 269.0
65.730944183 275.0
65.735868039 236.0
65.740791895 256.0
65.745715751 258.0
65.750639607 211.0
65.755563463 258.0
65.760487319 258.0
65.765411175 223.0
65.770335031 231.0
65.775258887 232.0
65.780182743 259.0
65.785106599 273.0
65.790030455 242.0
65.794954311 223.0
65.799878167 276.0
65.804802023 236.0
65.809725879 261.0
65.814649735 241.0
65.819573591 235.0
65.824497447 240.0
65.829421303 236.0
65.834345159 264.0
65.839269015 286.0
65.844192871 228.0
65.849116727 221.0
65.854040583 268.0
65.858964439 257.0
65.863888295 265.0
65.868812151 236.0
65.873736007 227.0
65.878659863 272.0
65.883583719 237.0
65.888507575 260.0
65.893431431 258.0
65.898355287 276.0
65.903279143 286.0
65.908202999 285.0
65.913126855 228.0
65.918050711 216.0
65.922974567 230.0
65.927898424 235.0
65.932822280 268.0
65.937746136 213.0
65.942669992 278.0
65.947593848 222.0
65.952517704 274.0
65.957441560 285.0
65.962365416 268.0
65.967289272 224.0
65.972213128 231.0
65.977136984 256.0
65.982060840 265.0
65.986984696 259.0
65.991908552 225.0
65.996832408 308.0
66.001756264 261.0
66.006680120 296.0
66.011603976 261.0
66.016527832 286.0
66.021451688 269.0
66.026375544 278.0
66.031299400 294.0
66.036223256 255.0
66.041147112 275.0
66.046070968 226.0
66.050994824 277.0
66.055918680 309.0
66.060842536 287.0
66.065766392 237.0
66.070690248 294.0
66.075614104 311.0
66.080537960 288.0
66.085461816 285.0
66.090385672 263.0
66.095309528 285.0
66.100233384 296.0
66.105157240 267.0
66.110081096 261.0
66.115004952 293.0
66.119928808 277.0
66.124852664 293.0
66.129776520 294.0
66.134700376 302.0
66.139624232 298.0
66.144548088 295.0
66.149471944 350.0
66.154395800 283.0
66.159319656 290.0
66.164243512 237.0
66.169167368 293.0
66.174091224 296.0
66.179015080 314.0
66.183938936 266.0
66.188862792 293.0
66.193786648 278.0
66.198710504 297.0
66.203634360 284.0
66.208558216 280.0
66.213482072 273.0
66.218405928 308.0
66.223329784 310.0
66.228253640 306.0
66.233177496 284.0
66.238101352 310.0
66.243025208 315.0
66.247949064 310.0
66.252872920 310.0
66.257796776 305.0
66.262720632 313.0
66.267644488 304.0
66.272568344 329.0
66.277492200 287.0
66.282416056 326.0
66.287339912 313.0
66.292263768 327.0
66.297187625 292.0
66.302111481 341.0
66.307035337 297.0
66.311959193 318.0
66.316883049 286.0
66.321806905 318.0
66.326730761 304.0
66.331654617 326.0
66.336578473 347.0
66.341502329 350.0
66.346426185 344.0
66.351350041 287.0
66.356273897 306.0
66.361197753 290.0
66.366121609 300.0
66.371045465 347.0
66.375969321 331.0
66.380893177 311.0
66.385817033 354.0
66.390740889 315.0
66.395664745 348.0
66.400588601 330.0
66.405512457 330.0
66.410436313 331.0
66.415360169 323.0
66.420284025 317.0
66.425207881 366.0
66.430131737 344.0
66.435055593 363.0
66.439979449 342.0
66.444903305 347.0
66.449827161 327.0
66.454751017 343.0
66.459674873 351.0
66.464598729 338.0
66.469522585 352.0
66.474446441 368.0
66.479370297 312.0
66.484294153 360.0
66.489218009 347.0
66.494141865 359.0
66.499065721 329.0
66.503989577 381.0
66.508913433 354.0
66.513837289 348.0
66.518761145 364.0
66.523685001 369.0
66.528608857 379.0
66.533532713 381.0
66.538456569 333.0
66.543380425 358.0
66.548304281 338.0
66.553228137 361.0
66.558151993 363.0
66.563075849 371.0
66.567999705 359.0
66.572923561 371.0
66.577847417 374.0
66.582771273 351.0
66.587695129 369.0
66.592618985 374.0
66.597542841 382.0
66.602466697 367.0
66.607390553 374.0
66.612314409 377.0
66.617238265 381.0
66.622162121 374.0
66.627085977 429.0
66.632009833 393.0
66.636933689 395.0
66.641857545 378.0
66.646781401 399.0
66.651705257 365.0
66.656629113 397.0
66.661552969 410.0
66.666476826 430.0
66.671400682 405.0
66.676324538 441.0
66.681248394 389.0
66.686172250 412.0
66.691096106 363.0
66.696019962 391.0
66.700943818 393.0
66.705867674 400.0
66.710791530 412.0
66.715715386 400.0
66.720639242 404.0
66.725563098 407.0
66.730486954 443.0
66.735410810 399.0
66.740334666 370.0
66.745258522 416.0
66.750182378 446.0
66.755106234 393.0
66.760030090 425.0
66.764953946 427.0
66.769877802 370.0
66.774801658 422.0
66.779725514 421.0
66.784649370 448.0
66.789573226 408.0
66.794497082 413.0
66.799420938 387.0
66.804344794 411.0
66.809268650 450.0
66.814192506 416.0
66.819116362 444.0
66.824040218 444.0
66.828964074 449.0
66.833887930 413.0
66.838811786 462.0
66.843735642 438.0
66.848659498 452.0
66.853583354 419.0
66.858507210 416.0
66.863431066 464.0
66.868354922 441.0
66.873278778 435.0
66.878202634 450.0
66.883126490 423.0
66.888050346 436.0
66.892974202 448.0
66.897898058 421.0
66.902821914 476.0
66.907745770 451.0
66.912669626 452.0
66.917593482 475.0
66.922517338 471.0
66.927441194 464.0
66.932365050 469.0
66.937288906 439.0
66.942212762 432.0
66.947136618 446.0
66.952060474 464.0
66.956984330 457.0
66.961908186 490.0
66.966832042 456.0
66.971755898 473.0
66.976679754 472.0
66.981603610 522.0
66.986527466 477.0
66.991451322 508.0
66.996375178 483.0
67.001299034 469.0
67.006222890 509.0
67.011146746 537.0
67.016070602 520.0
67.020994458 473.0
67.025918314 531.0
67.030842170 511.0
67.035766026 528.0
67.040689883 504.0
67.045613739 514.0
67.050537595 510.0
67.055461451 508.0
67.060385307 526.0
67.065309163 514.0
67.070233019 494.0
67.075156875 519.0
67.080080731 515.0
67.085004587 489.0
67.089928443 520.0
67.094852299 533.0
67.099776155 487.0
67.104700011 514.0
67.109623867 524.0
67.114547723 566.0
67.119471579 489.0
67.124395435 511.0
67.129319291 567.0
67.134243147 555.0
67.139167003 549.0
67.144090859 546.0
67.149014715 521.0
67.153938571 535.0
67.158862427 509.0
67.163786283 544.0
67.168710139 523.0
67.173633995 535.0
67.178557851 563.0
67.183481707 577.0
67.188405563 592.0
67.193329419 545.0
67.198253275 559.0
67.203177131 575.0
67.208100987 558.0
67.213024843 590.0
67.217948699 581.0
67.222872555 557.0
67.227796411 601.0
67.232720267 576.0
67.237644123 616.0
67.242567979 591.0
67.247491835 589.0
67.252415691 647.0
67.257339547 634.0
67.262263403 591.0
67.267187259 612.0
67.272111115 621.0
67.277034971 606.0
67.281958827 648.0
67.286882683 613.0
67.291806539 633.0
67.296730395 658.0
67.301654251 662.0
67.306578107 636.0
67.311501963 622.0
67.316425819 636.0
67.321349675 648.0
67.326273531 677.0
67.331197387 684.0
67.336121243 682.0
67.341045099 611.0
67.345968955 655.0
67.350892811 655.0
67.355816667 691.0
67.360740523 625.0
67.365664379 642.0
67.370588235 692.0
67.375512091 699.0
67.380435947 689.0
67.385359803 683.0
67.390283659 738.0
67.395207515 701.0
67.400131371 736.0
67.405055227 684.0
67.409979084 705.0
67.414902940 773.0
67.419826796 733.0
67.424750652 721.0
67.429674508 760.0
67.434598364 767.0
67.439522220 742.0
67.444446076 725.0
67.449369932 749.0
67.454293788 783.0
67.459217644 733.0
67.464141500 795.0
67.469065356 824.0
67.473989212 733.0
67.478913068 752.0
67.483836924 848.0
67.488760780 798.0
67.493684636 823.0
67.498608492 827.0
67.503532348 783.0
67.508456204 869.0
67.513380060 850.0
67.518303916 838.0
67.523227772 851.0
67.528151628 868.0
67.533075484 834.0
67.537999340 856.0
67.542923196 829.0
67.547847052 927.0
67.552770908 932.0
67.557694764 859.0
67.562618620 931.0
67.567542476 939.0
67.572466332 937.0
67.577390188 960.0
67.582314044 940.0
67.587237900 989.0
67.592161756 975.0
67.597085612 921.0
67.602009468 1011.0
67.606933324 978.0
67.611857180 992.0
67.616781036 1026.0
67.621704892 1023.0
67.626628748 1062.0
67.631552604 1109.0
67.636476460 1101.0
67.641400316 1048.0
67.646324172 1075.0
67.651248028 1132.0
67.656171884 1141.0
67.661095740 1131.0
67.666019596 1205.0
67.670943452 1238.0
67.675867308 1199.0
67.680791164 1277.0
67.685715020 1224.0
67.690638876 1350.0
67.695562732 1249.0
67.700486588 1319.0
67.705410444 1397.0
67.710334300 1465.0
67.715258156 1447.0
67.720182012 1462.0
67.725105868 1558.0
67.730029724 1586.0
67.734953580 1781.0
67.739877436 1849.0
67.744801292 1867.0
67.749725148 1908.0
67.754649004 2102.0
67.759572860 2113.0
67.764496716 2212.0
67.769420572 2301.0
67.774344428 2444.0
67.779268285 2615.0
67.784192141 2739.0
67.789115997 2837.0
67.794039853 2883.0
67.798963709 3081.0
67.803887565 3088.0
67.808811421 3189.0
67.813735277 3203.0
67.818659133 3466.0
67.823582989 3473.0
67.828506845 3407.0
67.833430701 3498.0
67.838354557 3599.0
67.843278413 3577.0
67.848202269 3545.0
67.853126125 3712.0
67.858049981 3658.0
67.862973837 3554.0
67.867897693 3579.0
67.872821549 3621.0
67.877745405 3579.0
67.882669261 3642.0
67.887593117 3612.0
67.892516973 3467.0
67.897440829 3542.0
67.902364685 3435.0
67.907288541 3439.0
67.912212397 3360.0
67.917136253 3472.0
67.922060109 3509.0
67.926983965 3479.0
67.931907821 3664.0
67.936831677 3753.0
67.941755533 3756.0
67.946679389 3755.0
67.951603245 3880.0
67.956527101 4089.0
67.961450957 4035.0
67.966374813 4347.0
67.971298669 4480.0
67.976222525 4576.0
67.981146381 4756.0
67.986070237 4900.0
67.990994093 5235.0
67.995917949 5317.0
68.000841805 5880.0
68.005765661 5774.0
68.010689517 6610.0
68.015613373 6616.0
68.020537229 7338.0
68.025461085 7591.0
68.030384941 8482.0
68.035308797 9084.0
68.040232653 9657.0
68.045156509 10569.0
68.050080365 11322.0
68.055004221 12901.0
68.059928077 13581.0
68.064851933 15899.0
68.069775789 16818.0
68.074699645 19981.0
68.079623501 21257.0
68.084547357 26032.0
68.089471213 27984.0
68.094395069 35283.0
68.099318925 38642.0
68.104242781 51432.0
68.109166637 56684.0
68.114090493 79534.0
68.119014349 91644.0
68.123938205 136735.0
68.128862061 160898.0
68.133785917 223394.0
68.138709773 248774.0
68.143633629 290476.0
68.148557486 304293.0
68.153481342 324050.0
68.158405198 330374.0
68.163329054 333877.0
68.168252910 334616.0
68.173176766 320119.0
68.178100622 310130.0
68.183024478 261588.0
68.187948334 236158.0
68.192872190 169711.0
68.197796046 145371.0
68.202719902 102368.0
68.207643758 88969.0
68.212567614 65809.0
68.217491470 58196.0
68.222415326 44685.0
68.227339182 39012.0
68.232263038 32557.0
68.237186894 28814.0
68.242110750 25293.0
68.247034606 23180.0
68.251958462 21814.0
68.256882318 20521.0
68.261806174 20048.0
68.266730030 20012.0
68.271653886 20142.0
68.276577742 21092.0
68.281501598 22752.0
68.286425454 24784.0
68.291349310 27268.0
68.296273166 30912.0
68.301197022 36029.0
68.306120878 44054.0
68.311044734 53745.0
68.315968590 68026.0
68.320892446 84731.0
68.325816302 104872.0
68.330740158 121814.0
68.335664014 138317.0
68.340587870 149809.0
68.345511726 158242.0
68.350435582 162912.0
68.355359438 165032.0
68.360283294 162839.0
68.365207150 158692.0
68.370131006 148774.0
68.375054862 133716.0
68.379978718 116330.0
68.384902574 95646.0
68.389826430 78378.0
68.394750286 62180.0
68.399674142 49806.0
68.404597998 39020.0
68.409521854 31781.0
68.414445710 26061.0
68.419369566 21926.0
68.424293422 18267.0
68.429217278 15618.0
68.434141134 13611.0
68.439064990 12277.0
68.443988846 10911.0
68.448912702 9754.0
68.453836558 8824.0
68.458760414 8180.0
68.463684270 7371.0
68.468608126 7082.0
68.473531982 6633.0
68.478455838 6155.0
68.483379694 5760.0
68.488303550 5438.0
68.493227406 5148.0
68.498151262 5004.0
68.503075118 4720.0
68.507998974 4527.0
68.512922830 4312.0
68.517846687 4143.0
68.522770543 4097.0
68.527694399 3823.0
68.532618255 3698.0
68.537542111 3571.0
68.542465967 3532.0
68.547389823 3439.0
68.552313679 3318.0
68.557237535 3184.0
68.562161391 3100.0
68.567085247 2974.0
68.572009103 2898.0
68.576932959 2854.0
68.581856815 2745.0
68.586780671 2741.0
68.591704527 2531.0
68.596628383 2550.0
68.601552239 2422.0
68.606476095 2396.0
68.611399951 2314.0
68.616323807 2229.0
68.621247663 2148.0
68.626171519 2178.0
68.631095375 2161.0
68.636019231 2180.0
68.640943087 2020.0
68.645866943 1962.0
68.650790799 1950.0
68.655714655 1905.0
68.660638511 1879.0
68.665562367 1740.0
68.670486223 1849.0
68.675410079 1780.0
68.680333935 1766.0
68.685257791 1709.0
68.690181647 1565.0
68.695105503 1681.0
68.700029359 1642.0
68.704953215 1582.0
68.709877071 1549.0
68.714800927 1510.0
68.719724783 1505.0
68.724648639 1512.0
68.729572495 1475.0
68.734496351 1368.0
68.739420207 1467.0
68.744344063 1434.0
68.749267919 1399.0
68.754191775 1376.0
68.759115631 1318.0
68.764039487 1240.0
68.768963343 1281.0
68.773887199 1171.0
68.778811055 1239.0
68.783734911 1163.0
68.788658767 1214.0
68.793582623 1223.0
68.798506479 1138.0
68.803430335 1116.0
68.808354191 1150.0
68.813278047 1164.0
68.818201903 1090.0
68.823125759 1116.0
68.828049615 1074.0
68.832973471 1040.0
68.837897327 1038.0
68.842821183 1032.0
68.847745039 1020.0
68.852668895 1052.0
68.857592751 980.0
68.862516607 1034.0
68.867440463 995.0
68.872364319 963.0
68.877288175 918.0
68.882212031 975.0
68.887135887 887.0
68.892059744 913.0
68.896983600 895.0
68.901907456 934.0
68.906831312 841.0
68.911755168 872.0
68.916679024 873.0
68.921602880 834.0
68.926526736 854.0
68.931450592 834.0
68.936374448 853.0
68.941298304 803.0
68.946222160 794.0
68.951146016 802.0
68.956069872 816.0
68.960993728 791.0
68.965917584 816.0
68.970841440 798.0
68.975765296 767.0
68.980689152 784.0
68.985613008 816.0
68.990536864 774.0
68.995460720 783.0
69.000384576 751.0
69.005308432 736.0
69.010232288 734.0
69.015156144 745.0
69.020080000 719.0
69.025003856 704.0
69.029927712 700.0
69.034851568 737.0
69.039775424 729.0
69.044699280 683.0
69.049623136 750.0
69.054546992 662.0
69.059470848 677.0
69.064394704 624.0
69.069318560 671.0
69.074242416 714.0
69.079166272 653.0
69.084090128 675.0
69.089013984 653.0
69.093937840 654.0
69.098861696 652.0
69.103785552 614.0
69.108709408 613.0
69.113633264 640.0
69.118557120 602.0
69.123480976 566.0
69.128404832 626.0
69.133328688 620.0
69.138252544 560.0
69.143176400 584.0
69.148100256 585.0
69.153024112 562.0
69.157947968 568.0
69.162871824 588.0
69.167795680 542.0
69.172719536 580.0
69.177643392 540.0
69.182567248 548.0
69.187491104 613.0
69.192414960 522.0
69.197338816 544.0
69.202262672 526.0
69.207186528 521.0
69.212110384 536.0
69.217034240 512.0
69.221958096 561.0
69.226881952 509.0
69.231805808 535.0
69.236729664 511.0
69.241653520 509.0
69.246577376 488.0
69.251501232 501.0
69.256425088 499.0
69.261348945 493.0
69.266272801 468.0
69.271196657 490.0
69.276120513 469.0
69.281044369 522.0
69.285968225 499.0
69.290892081 455.0
69.295815937 497.0
69.300739793 489.0
69.305663649 465.0
69.310587505 457.0
69.315511361 445.0
69.320435217 498.0
69.325359073 458.0
69.330282929 452.0
69.335206785 437.0
69.340130641 445.0
69.345054497 457.0
69.349978353 461.0
69.354902209 427.0
69.359826065 474.0
69.364749921 430.0
69.369673777 454.0
69.374597633 444.0
69.379521489 404.0
69.384445345 433.0
69.389369201 424.0
69.394293057 418.0
69.399216913 460.0
69.404140769 430.0
69.409064625 413.0
69.413988481 420.0
69.418912337 410.0
69.423836193 405.0
69.428760049 402.0
69.433683905 404.0
69.438607761 383.0
69.443531617 419.0
69.448455473 380.0
69.453379329 385.0
69.458303185 379.0
69.463227041 389.0
69.468150897 376.0
69.473074753 417.0
69.477998609 375.0
69.482922465 392.0
69.487846321 366.0
69.492770177 341.0
69.497694033 357.0
69.502617889 381.0
69.507541745 357.0
69.512465601 361.0
69.517389457 385.0
69.522313313 324.0
69.527237169 348.0
69.532161025 362.0
69.537084881 314.0
69.542008737 335.0
69.546932593 335.0
69.551856449 379.0
69.556780305 334.0
69.561704161 321.0
69.566628017 330.0
69.571551873 328.0
69.576475729 360.0
69.581399585 314.0
69.586323441 347.0
69.591247297 356.0
69.596171153 330.0
69.601095009 288.0
69.606018865 343.0
69.610942721 294.0
69.615866577 322.0
69.620790433 341.0
69.625714289 326.0
69.630638146 324.0
69.635562002 319.0
69.640485858 314.0
69.645409714 298.0
69.650333570 292.0
69.655257426 311.0
69.660181282 269.0
69.665105138 334.0
69.670028994 293.0
69.674952850 311.0
69.679876706 319.0
69.684800562 288.0
69.689724418 336.0
69.694648274 312.0
69.699572130 305.0
69.704495986 325.0
69.709419842 319.0
69.714343698 327.0
69.719267554 283.0
69.724191410 272.0
69.729115266 297.0
69.734039122 315.0
69.738962978 304.0
69.743886834 302.0
69.748810690 315.0
69.753734546 319.0
69.758658402 265.0
69.763582258 302.0
69.768506114 263.0
69.773429970 301.0
69.778353826 287.0
69.783277682 302.0
69.788201538 292.0
69.793125394 291.0
69.798049250 283.0
69.802973106 303.0
69.807896962 275.0
69.812820818 266.0
69.817744674 269.0
69.822668530 306.0
69.827592386 284.0
69.832516242 261.0
69.837440098 265.0
69.842363954 276.0
69.847287810 291.0
69.852211666 262.0
69.857135522 284.0
69.862059378 277.0
69.866983234 264.0
69.871907090 236.0
69.876830946 288.0
69.881754802 244.0
69.886678658 265.0
69.891602514 297.0
69.896526370 268.0
69.901450226 202.0
69.906374082 304.0
69.911297938 229.0
69.916221794 279.0
69.921145650 215.0
69.926069506 261.0
69.930993362 256.0
69.935917218 258.0
69.940841074 286.0
69.945764930 262.0
69.950688786 266.0
69.955612642 223.0
69.960536498 266.0
69.965460354 281.0
69.970384210 289.0
69.975308066 288.0
69.980231922 258.0
69.985155778 242.0
69.990079634 255.0
69.995003490 264.0
69.999927347 230.0
70.004851203 258.0
70.009775059 258.0
70.014698915 239.0
70.019622771 262.0
70.024546627 233.0
70.029470483 277.0
70.034394339 230.0
70.039318195 235.0
70.044242051 229.0
70.049165907 213.0
70.054089763 225.0
70.059013619 213.0
70.063937475 264.0
70.068861331 228.0
70.073785187 233.0
70.078709043 236.0
70.083632899 238.0
70.088556755 241.0
70.093480611 239.0
70.098404467 229.0
70.103328323 243.0
70.108252179 256.0
70.113176035 229.0
70.118099891 281.0
70.123023747 262.0
70.127947603 221.0
70.132871459 219.0
70.137795315 222.0
70.142719171 212.0
70.147643027 231.0
70.152566883 261.0
70.157490739 220.0
70.162414595 214.0
70.167338451 230.0
70.172262307 216.0
70.177186163 223.0
70.182110019 199.0
70.187033875 219.0
70.191957731 202.0
70.196881587 217.0
70.201805443 223.0
70.206729299 220.0
70.211653155 220.0
70.216577011 226.0
70.221500867 188.0
70.226424723 234.0
70.231348579 237.0
70.236272435 207.0
70.241196291 255.0
70.246120147 230.0
70.251044003 209.0
70.255967859 225.0
70.260891715 219.0
70.265815571 229.0
70.270739427 216.0
70.275663283 224.0
70.280587139 204.0
70.285510995 216.0
70.290434851 223.0
70.295358707 241.0
70.300282563 196.0
70.305206419 210.0
70.310130275 214.0
70.315054131 217.0
70.319977987 224.0
70.324901843 186.0
70.329825699 204.0
70.334749555 201.0
70.339673411 185.0
70.344597267 194.0
70.349521123 237.0
70.354444979 245.0
70.359368835 239.0
70.364292691 198.0
70.369216548 203.0
70.374140404 201.0
70.379064260 232.0
70.383988116 220.0
70.388911972 194.0
70.393835828 211.0
70.398759684 227.0
70.403683540 202.0
70.408607396 255.0
70.413531252 201.0
70.418455108 211.0
70.423378964 201.0
70.428302820 200.0
70.433226676 219.0
70.438150532 187.0
70.443074388 231.0
70.447998244 190.0
70.452922100 230.0
70.457845956 220.0
70.462769812 211.0
70.467693668 218.0
70.472617524 209.0
70.477541380 230.0
70.482465236 213.0
70.487389092 187.0
70.492312948 198.0
70.497236804 229.0
70.502160660 193.0
70.507084516 181.0
70.512008372 229.0
70.516932228 181.0
70.521856084 181.0
70.526779940 214.0
70.531703796 236.0
70.536627652 187.0
70.541551508 189.0
70.546475364 205.0
70.551399220 211.0
70.556323076 206.0
70.561246932 213.0
70.566170788 205.0
70.571094644 190.0
70.576018500 200.0
70.580942356 206.0
70.585866212 205.0
70.590790068 192.0
70.595713924 206.0
70.600637780 200.0
70.605561636 194.0
70.610485492 181.0
70.615409348 216.0
70.620333204 174.0
70.625257060 196.0
70.630180916 205.0
70.635104772 215.0
70.640028628 219.0
70.644952484 200.0
70.649876340 178.0
70.654800196 189.0
70.659724052 206.0
70.664647908 221.0
70.669571764 213.0
70.674495620 190.0
70.679419476 176.0
70.684343332 215.0
70.689267188 204.0
70.694191044 202.0
70.699114900 187.0
70.704038756 205.0
70.708962612 187.0
70.713886468 188.0
70.718810324 193.0
70.723734180 200.0
70.728658036 165.0
70.733581892 233.0
70.738505748 195.0
70.743429605 201.0
70.748353461 204.0
70.753277317 202.0
70.758201173 192.0
70.763125029 204.0
70.768048885 189.0
70.772972741 200.0
70.777896597 205.0
70.782820453 197.0
70.787744309 199.0
70.792668165 179.0
70.797592021 191.0
70.802515877 164.0
70.807439733 202.0
70.812363589 201.0
70.817287445 189.0
70.822211301 199.0
70.827135157 190.0
70.832059013 190.0
70.836982869 207.0
70.841906725 196.0
70.846830581 201.0
70.851754437 204.0
70.856678293 207.0
70.861602149 173.0
70.866526005 218.0
70.871449861 216.0
70.876373717 198.0
70.881297573 182.0
70.886221429 199.0
70.891145285 190.0
70.896069141 205.0
70.900992997 178.0
70.905916853 187.0
70.910840709 192.0
70.915764565 203.0
70.920688421 189.0
70.925612277 205.0
70.930536133 209.0
70.935459989 177.0
70.940383845 196.0
70.945307701 199.0
70.950231557 205.0
70.955155413 190.0
70.960079269 188.0
70.965003125 218.0
70.969926981 179.0
70.974850837 178.0
70.979774693 185.0
70.984698549 190.0
70.989622405 188.0
70.994546261 167.0
70.999470117 205.0
71.004393973 185.0
71.009317829 181.0
71.014241685 189.0
71.019165541 209.0
71.024089397 199.0
71.029013253 213.0
71.033937109 182.0
71.038860965 169.0
71.043784821 205.0
71.048708677 176.0
71.053632533 192.0
71.058556389 193.0
71.063480245 203.0
71.068404101 184.0
71.073327957 158.0
71.078251813 217.0
71.083175669 194.0
71.088099525 188.0
71.093023381 192.0
71.097947237 205.0
71.102871093 207.0
71.107794949 194.0
71.112718806 194.0
71.117642662 178.0
71.122566518 209.0
71.127490374 185.0
71.132414230 190.0
71.137338086 192.0
71.142261942 168.0
71.147185798 205.0
71.152109654 192.0
71.157033510 199.0
71.161957366 198.0
71.166881222 175.0
71.171805078 185.0
71.176728934 192.0
71.181652790 196.0
71.186576646 191.0
71.191500502 191.0
71.196424358 186.0
71.201348214 178.0
71.206272070 189.0
71.211195926 175.0
71.216119782 210.0
71.221043638 165.0
71.225967494 202.0
71.230891350 199.0
71.235815206 195.0
71.240739062 188.0
71.245662918 199.0
71.250586774 207.0
71.255510630 177.0
71.260434486 174.0
71.265358342 196.0
71.270282198 181.0
71.275206054 201.0
71.280129910 174.0
71.285053766 176.0
71.289977622 191.0
71.294901478 166.0
71.299825334 190.0
71.304749190 190.0
71.309673046 191.0
71.314596902 178.0
71.319520758 184.0
71.324444614 183.0
71.329368470 206.0
71.334292326 186.0
71.339216182 187.0
71.344140038 189.0
71.349063894 192.0
71.353987750 198.0
71.358911606 213.0
71.363835462 185.0
71.368759318 199.0
71.373683174 161.0
71.378607030 188.0
71.383530886 198.0
71.388454742 197.0
71.393378598 186.0
71.398302454 183.0
71.403226310 194.0
71.408150166 190.0
71.413074022 170.0
71.417997878 194.0
71.422921734 181.0
71.427845590 196.0
71.432769446 174.0
71.437693302 177.0
71.442617158 198.0
71.447541014 202.0
71.452464870 181.0
71.457388726 177.0
71.462312582 167.0
71.467236438 184.0
71.472160294 194.0
71.477084150 206.0
71.482008007 174.0
71.486931863 169.0
71.491855719 198.0
71.496779575 182.0
71.501703431 183.0
71.506627287 185.0
71.511551143 174.0
71.516474999 161.0
71.521398855 153.0
71.526322711 167.0
71.531246567 171.0
71.536170423 216.0
71.541094279 185.0
71.546018135 184.0
71.550941991 211.0
71.555865847 179.0
71.560789703 187.0
71.565713559 174.0
71.570637415 164.0
71.575561271 165.0
71.580485127 169.0
71.585408983 161.0
71.590332839 163.0
71.595256695 184.0
71.600180551 185.0
71.605104407 173.0
71.610028263 176.0
71.614952119 191.0
71.619875975 168.0
71.624799831 173.0
71.629723687 176.0
71.634647543 177.0
71.639571399 195.0
71.644495255 177.0
71.649419111 187.0
71.654342967 200.0
71.659266823 201.0
71.664190679 185.0
71.669114535 172.0
71.674038391 185.0
71.678962247 172.0
71.683886103 168.0
71.688809959 198.0
71.693733815 159.0
71.698657671 188.0
71.703581527 197.0
71.708505383 193.0
71.713429239 178.0
71.718353095 190.0
71.723276951 148.0
71.728200807 167.0
71.733124663 192.0
71.738048519 187.0
71.742972375 177.0
71.747896231 170.0
71.752820087 192.0
71.757743943 193.0
71.762667799 179.0
71.767591655 177.0
71.772515511 182.0
71.777439367 177.0
71.782363223 182.0
71.787287079 184.0
71.792210935 170.0
71.797134791 183.0
71.802058647 169.0
71.806982503 200.0
71.811906359 189.0
71.816830215 177.0
71.821754071 183.0
71.826677927 198.0
71.831601783 189.0
71.836525639 194.0
71.841449495 178.0
71.846373351 179.0
71.851297208 171.0
71.856221064 179.0
71.861144920 172.0
71.866068776 193.0
71.870992632 157.0
71.875916488 186.0
71.880840344 186.0
71.885764200 173.0
71.890688056 182.0
71.895611912 160.0
71.900535768 207.0
71.905459624 184.0
71.910383480 172.0
71.915307336 212.0
71.920231192 178.0
71.925155048 155.0
71.930078904 187.0
71.935002760 174.0
71.939926616 188.0
71.944850472 163.0
71.949774328 194.0
71.954698184 173.0
71.959622040 185.0
71.964545896 187.0
71.969469752 167.0
71.974393608 176.0
71.979317464 169.0
71.984241320 185.0
71.989165176 188.0
71.994089032 176.0
71.999012888 169.0
72.003936744 162.0
72.008860600 175.0
72.013784456 185.0
72.018708312 180.0
72.023632168 186.0
72.028556024 195.0
72.033479880 157.0
72.038403736 178.0
72.043327592 191.0
72.048251448 195.0
72.053175304 184.0
72.058099160 191.0
72.063023016 178.0
72.067946872 192.0
72.072870728 174.0
72.077794584 159.0
72.082718440 189.0
72.087642296 172.0
72.092566152 180.0
72.097490008 155.0
72.102413864 186.0
72.107337720 180.0
72.112261576 182.0
72.117185432 178.0
72.122109288 175.0
72.127033144 196.0
72.131957000 181.0
72.136880856 171.0
72.141804712 210.0
72.146728568 168.0
72.151652424 155.0
72.156576280 175.0
72.161500136 194.0
72.166423992 186.0
72.171347848 191.0
72.176271704 148.0
72.181195560 153.0
72.186119416 169.0
72.191043272 190.0
72.195967128 184.0
72.200890984 181.0
72.205814840 214.0
72.210738696 177.0
72.215662552 181.0
72.220586409 156.0
72.225510265 185.0
72.230434121 179.0
72.235357977 155.0
72.240281833 184.0
72.245205689 190.0
72.250129545 182.0
72.255053401 172.0
72.259977257 173.0
72.264901113 163.0
72.269824969 168.0
72.274748825 179.0
72.279672681 176.0
72.284596537 171.0
72.289520393 189.0
72.294444249 165.0
72.299368105 172.0
72.304291961 199.0
72.309215817 153.0
72.314139673 162.0
72.319063529 171.0
72.323987385 196.0
72.328911241 174.0
72.333835097 164.0
72.338758953 164.0
72.343682809 187.0
72.348606665 169.0
72.353530521 184.0
72.358454377 160.0
72.363378233 156.0
72.368302089 151.0
72.373225945 178.0
72.378149801 180.0
72.383073657 177.0
72.387997513 156.0
72.392921369 189.0
72.397845225 174.0
72.402769081 173.0
72.407692937 180.0
72.412616793 162.0
72.417540649 155.0
72.422464505 183.0
72.427388361 190.0
72.432312217 147.0
72.437236073 194.0
72.442159929 174.0
72.447083785 161.0
72.452007641 189.0
72.456931497 178.0
72.461855353 165.0
72.466779209 172.0
72.471703065 179.0
72.476626921 172.0
72.481550777 183.0
72.486474633 185.0
72.491398489 181.0
72.496322345 168.0
72.501246201 180.0
72.506170057 162.0
72.511093913 182.0
72.516017769 140.0
72.520941625 172.0
72.525865481 187.0
72.530789337 176.0
72.535713193 171.0
72.540637049 208.0
72.545560905 171.0
72.550484761 161.0
72.555408617 182.0
72.560332473 175.0
72.565256329 158.0
72.570180185 170.0
72.575104041 152.0
72.580027897 154.0
72.584951753 176.0
72.589875609 151.0
72.594799466 184.0
72.599723322 193.0
72.604647178 174.0
72.609571034 185.0
72.614494890 173.0
72.619418746 171.0
72.624342602 174.0
72.629266458 191.0
72.634190314 191.0
72.639114170 184.0
72.644038026 157.0
72.648961882 186.0
72.653885738 189.0
72.658809594 143.0
72.663733450 180.0
72.668657306 169.0
72.673581162 187.0
72.678505018 172.0
72.683428874 170.0
72.688352730 177.0
72.693276586 169.0
72.698200442 159.0
72.703124298 176.0
72.708048154 160.0
72.712972010 178.0
72.717895866 160.0
72.722819722 158.0
72.727743578 176.0
72.732667434 180.0
72.737591290 174.0
72.742515146 167.0
72.747439002 172.0
72.752362858 183.0
72.757286714 171.0
72.762210570 180.0
72.767134426 160.0
72.772058282 164.0
72.776982138 149.0
72.781905994 170.0
72.786829850 181.0
72.791753706 169.0
72.796677562 175.0
72.801601418 179.0
72.806525274 177.0
72.811449130 162.0
72.816372986 179.0
72.821296842 169.0
72.826220698 151.0
72.831144554 141.0
72.836068410 144.0
72.840992266 175.0
72.845916122 184.0
72.850839978 159.0
72.855763834 170.0
72.860687690 184.0
72.865611546 184.0
72.870535402 168.0
72.875459258 177.0
72.880383114 176.0
72.885306970 162.0
72.890230826 162.0
72.895154682 182.0
72.900078538 152.0
72.905002394 170.0
72.909926250 161.0
72.914850106 163.0
72.919773962 168.0
72.924697818 195.0
72.929621674 199.0
72.934545530 166.0
72.939469386 149.0
72.944393242 166.0
72.949317098 176.0
72.954240954 181.0
72.959164810 173.0
72.964088667 180.0
72.969012523 146.0
72.973936379 166.0
72.978860235 166.0
72.983784091 182.0
72.988707947 179.0
72.993631803 170.0
72.998555659 162.0
73.003479515 167.0
73.008403371 148.0
73.013327227 162.0
73.018251083 171.0
73.023174939 192.0
73.028098795 168.0
73.033022651 154.0
73.037946507 186.0
73.042870363 170.0
73.047794219 183.0
73.052718075 205.0
73.057641931 165.0
73.062565787 184.0
73.067489643 167.0
73.072413499 190.0
73.077337355 182.0
73.082261211 181.0
73.087185067 166.0
73.092108923 166.0
73.097032779 189.0
73.101956635 179.0
73.106880491 183.0
73.111804347 189.0
73.116728203 173.0
73.121652059 181.0
73.126575915 178.0
73.131499771 193.0
73.136423627 181.0
73.141347483 166.0
73.146271339 162.0
73.151195195 165.0
73.156119051 176.0
73.161042907 144.0
73.165966763 176.0
73.170890619 172.0
73.175814475 169.0
73.180738331 162.0
73.185662187 172.0
73.190586043 161.0
73.195509899 164.0
73.200433755 167.0
73.205357611 175.0
73.210281467 162.0
73.215205323 173.0
73.220129179 176.0
73.225053035 169.0
73.229976891 160.0
73.234900747 150.0
73.239824603 173.0
73.244748459 174.0
73.249672315 175.0
73.254596171 151.0
73.259520027 148.0
73.264443883 161.0
73.269367739 188.0
73.274291595 155.0
73.279215451 168.0
73.284139307 185.0
73.289063163 141.0
73.293987019 169.0
73.298910875 168.0
73.303834731 180.0
73.308758587 141.0
73.313682443 189.0
73.318606299 185.0
73.323530155 185.0
73.328454011 164.0
73.333377868 164.0
73.338301724 177.0
73.343225580 168.0
73.348149436 151.0
73.353073292 163.0
73.357997148 159.0
73.362921004 162.0
73.367844860 143.0
73.372768716 177.0
73.377692572 159.0
73.382616428 197.0
73.387540284 154.0
73.392464140 180.0
73.397387996 174.0
73.402311852 147.0
73.407235708 164.0
73.412159564 172.0
73.417083420 166.0
73.422007276 164.0
73.426931132 177.0
73.431854988 172.0
73.436778844 146.0
73.441702700 173.0
73.446626556 153.0
73.451550412 147.0
73.456474268 175.0
73.461398124 152.0
73.466321980 148.0
73.471245836 180.0
73.476169692 173.0
73.481093548 180.0
73.486017404 163.0
73.490941260 160.0
73.495865116 157.0
73.500788972 163.0
73.505712828 150.0
73.510636684 194.0
73.515560540 158.0
73.520484396 174.0
73.525408252 171.0
73.530332108 131.0
73.535255964 182.0
73.540179820 156.0
73.545103676 178.0
73.550027532 151.0
73.554951388 190.0
73.559875244 162.0
73.564799100 190.0
73.569722956 170.0
73.574646812 164.0
73.579570668 168.0
73.584494524 169.0
73.589418380 168.0
73.594342236 153.0
73.599266092 141.0
73.604189948 178.0
73.609113804 175.0
73.614037660 155.0
73.618961516 160.0
73.623885372 156.0
73.628809228 165.0
73.633733084 181.0
73.638656940 158.0
73.643580796 167.0
73.648504652 165.0
73.653428508 179.0
73.658352364 186.0
73.663276220 170.0
73.668200076 166.0
73.673123932 179.0
73.678047788 172.0
73.682971644 152.0
73.687895500 159.0
73.692819356 179.0
73.697743212 175.0
73.702667069 167.0
73.707590925 160.0
73.712514781 180.0
73.717438637 166.0
73.722362493 161.0
73.727286349 172.0
73.732210205 154.0
73.737134061 172.0
73.742057917 145.0
73.746981773 170.0
73.751905629 152.0
73.756829485 171.0
73.761753341 149.0
73.766677197 141.0
73.771601053 161.0
73.776524909 158.0
73.781448765 185.0
73.786372621 170.0
73.791296477 139.0
73.796220333 162.0
73.801144189 151.0
73.806068045 188.0
73.810991901 173.0
73.815915757 164.0
73.820839613 153.0
73.825763469 173.0
73.830687325 166.0
73.835611181 166.0
73.840535037 180.0
73.845458893 164.0
73.850382749 167.0
73.855306605 193.0
73.860230461 153.0
73.865154317 144.0
73.870078173 153.0
73.875002029 159.0
73.879925885 174.0
73.884849741 170.0
73.889773597 153.0
73.894697453 151.0
73.899621309 171.0
73.904545165 191.0
73.909469021 186.0
73.914392877 167.0
73.919316733 178.0
73.924240589 179.0
73.929164445 165.0
73.934088301 177.0
73.939012157 159.0
73.943936013 148.0
73.948859869 173.0
73.953783725 178.0
73.958707581 189.0
73.963631437 180.0
73.968555293 168.0
73.973479149 179.0
73.978403005 176.0
73.983326861 187.0
73.988250717 181.0
73.993174573 167.0
73.998098429 199.0
74.003022285 167.0
74.007946141 168.0
74.012869997 173.0
74.017793853 151.0
74.022717709 164.0
74.027641565 177.0
74.032565421 152.0
74.037489277 175.0
74.042413133 157.0
74.047336989 172.0
74.052260845 147.0
74.057184701 180.0
74.062108557 187.0
74.067032413 185.0
74.071956270 166.0
74.076880126 164.0
74.081803982 180.0
74.086727838 173.0
74.091651694 165.0
74.096575550 179.0
74.101499406 183.0
74.106423262 159.0
74.111347118 171.0
74.116270974 185.0
74.121194830 145.0
74.126118686 160.0
74.131042542 161.0
74.135966398 147.0
74.140890254 181.0
74.145814110 183.0
74.150737966 177.0
74.155661822 179.0
74.160585678 188.0
74.165509534 173.0
74.170433390 175.0
74.175357246 155.0
74.180281102 176.0
74.185204958 164.0
74.190128814 144.0
74.195052670 144.0
74.199976526 166.0
74.204900382 155.0
74.209824238 164.0
74.214748094 156.0
74.219671950 162.0
74.224595806 150.0
74.229519662 186.0
74.234443518 157.0
74.239367374 168.0
74.244291230 141.0
74.249215086 156.0
74.254138942 148.0
74.259062798 159.0
74.263986654 150.0
74.268910510 165.0
74.273834366 163.0
74.278758222 152.0
74.283682078 195.0
74.288605934 167.0
74.293529790 170.0
74.298453646 147.0
74.303377502 169.0
74.308301358 171.0
74.313225214 170.0
74.318149070 159.0
74.323072926 162.0
74.327996782 168.0
74.332920638 137.0
74.337844494 160.0
74.342768350 149.0
74.347692206 167.0
74.352616062 158.0
74.357539918 163.0
74.362463774 134.0
74.367387630 174.0
74.372311486 187.0
74.377235342 161.0
74.382159198 168.0
74.387083054 172.0
74.392006910 148.0
74.396930766 165.0
74.401854622 186.0
74.406778478 141.0
74.411702334 171.0
74.416626190 179.0
74.421550046 152.0
74.426473902 168.0
74.431397758 205.0
74.436321614 186.0
74.441245470 170.0
74.446169327 171.0
74.451093183 149.0
74.456017039 193.0
74.460940895 172.0
74.465864751 157.0
74.470788607 168.0
74.475712463 159.0
74.480636319 142.0
74.485560175 186.0
74.490484031 164.0
74.495407887 162.0
74.500331743 134.0
74.505255599 162.0
74.510179455 156.0
74.515103311 169.0
74.520027167 137.0
74.524951023 188.0
74.529874879 167.0
74.534798735 187.0
74.539722591 170.0
74.544646447 137.0
74.549570303 173.0
74.554494159 145.0
74.559418015 172.0
74.564341871 172.0
74.569265727 173.0
74.574189583 160.0
74.579113439 162.0
74.584037295 175.0
74.588961151 165.0
74.593885007 151.0
74.598808863 182.0
74.603732719 181.0
74.608656575 175.0
74.613580431 195.0
74.618504287 187.0
74.623428143 154.0
74.628351999 156.0
74.633275855 155.0
74.638199711 180.0
74.643123567 170.0
74.648047423 158.0
74.652971279 155.0
74.657895135 170.0
74.662818991 150.0
74.667742847 166.0
74.672666703 208.0
74.677590559 144.0
74.682514415 191.0
74.687438271 158.0
74.692362127 162.0
74.697285983 131.0
74.702209839 174.0
74.707133695 171.0
74.712057551 147.0
74.716981407 158.0
74.721905263 176.0
74.726829119 170.0
74.731752975 133.0
74.736676831 148.0
74.741600687 162.0
74.746524543 152.0
74.751448399 150.0
74.756372255 159.0
74.761296111 164.0
74.766219967 149.0
74.771143823 172.0
74.776067679 147.0
74.780991535 159.0
74.785915391 156.0
74.790839247 195.0
74.795763103 150.0
74.800686959 162.0
74.805610815 177.0
74.810534671 143.0
74.815458528 179.0
74.820382384 161.0
74.825306240 179.0
74.830230096 181.0
74.835153952 169.0
74.840077808 191.0
74.845001664 173.0
74.849925520 152.0
74.854849376 179.0
74.859773232 168.0
74.864697088 177.0
74.869620944 184.0
74.874544800 174.0
74.879468656 167.0
74.884392512 175.0
74.889316368 162.0
74.894240224 153.0
74.899164080 160.0
74.904087936 174.0
74.909011792 138.0
74.913935648 166.0
74.918859504 165.0
74.923783360 151.0
74.928707216 151.0
74.933631072 147.0
74.938554928 165.0
74.943478784 181.0
74.948402640 183.0
74.953326496 161.0
74.958250352 156.0
74.963174208 167.0
74.968098064 175.0
74.973021920 168.0
74.977945776 165.0
74.982869632 171.0
74.987793488 169.0
74.992717344 168.0
74.997641200 162.0
