30.002461930 47.0
30.007385786 42.0
30.012309642 49.0
30.017233498 56.0
30.022157354 34.0
30.027081210 43.0
30.032005066 34.0
30.036928922 53.0
30.041852778 49.0
30.046776634 64.0
30.051700490 54.0
30.056624346 58.0
30.061548202 40.0
30.066472058 48.0
30.071395914 57.0
30.076319770 49.0
30.081243626 55.0
30.086167482 59.0
30.091091338 56.0
30.096015194 58.0
30.100939050 46.0
30.105862906 51.0
30.110786762 60.0
30.115710618 50.0
30.120634474 62.0
30.125558330 54.0
30.130482186 51.0
30.135406042 51.0
30.140329898 43.0
30.145253754 54.0
30.150177610 53.0
30.155101466 66.0
30.160025322 58.0
30.164949178 55.0
30.169873034 59.0
30.174796890 46.0
30.179720746 53.0
30.184644602 40.0
30.189568458 60.0
30.194492314 49.0
30.199416170 44.0
30.204340026 63.0
30.209263882 62.0
30.214187738 52.0
30.219111594 61.0
30.224035450 53.0
30.228959306 65.0
30.233883162 42.0
30.238807018 62.0
30.243730874 58.0
30.248654730 54.0
30.253578587 45.0
30.258502443 75.0
30.263426299 50.0
30.268350155 42.0
30.273274011 44.0
30.278197867 54.0
30.283121723 59.0
30.288045579 50.0
30.292969435 52.0
30.297893291 53.0
30.302817147 55.0
30.307741003 55.0
30.312664859 50.0
30.317588715 59.0
30.322512571 55.0
30.327436427 55.0
30.332360283 54.0
30.337284139 78.0
30.342207995 36.0
30.347131851 65.0
30.352055707 65.0
30.356979563 56.0
30.361903419 52.0
30.366827275 49.0
30.371751131 50.0
30.376674987 58.0
30.381598843 42.0
30.386522699 60.0
30.391446555 48.0
30.396370411 47.0
30.401294267 47.0
30.406218123 43.0
30.411141979 62.0
30.416065835 53.0
30.420989691 51.0
30.425913547 53.0
30.430837403 60.0
30.435761259 57.0
30.440685115 45.0
30.445608971 47.0
30.450532827 63.0
30.455456683 43.0
30.460380539 41.0
30.465304395 43.0
30.470228251 29.0
30.475152107 56.0
30.480075963 48.0
30.484999819 43.0
30.489923675 62.0
30.494847531 60.0
30.499771387 54.0
30.504695243 54.0
30.509619099 58.0
30.514542955 56.0
30.519466811 69.0
30.524390667 44.0
30.529314523 62.0
30.534238379 57.0
30.539162235 53.0
30.544086091 49.0
30.549009947 43.0
30.553933803 61.0
30.558857659 52.0
30.563781515 50.0
30.568705371 55.0
30.573629227 56.0
30.578553083 59.0
30.583476939 49.0
30.588400795 55.0
30.593324651 45.0
30.598248507 50.0
30.603172363 49.0
30.608096219 48.0
30.613020075 49.0
30.617943931 47.0
30.622867787 41.0
30.627791643 50.0
30.632715499 45.0
30.637639355 60.0
30.642563211 43.0
30.647487067 63.0
30.652410923 49.0
30.657334779 41.0
30.662258635 54.0
30.667182491 46.0
30.672106347 58.0
30.677030203 47.0
30.681954059 45.0
30.686877915 33.0
30.691801771 41.0
30.696725627 56.0
30.701649483 58.0
30.706573339 48.0
30.711497195 47.0
30.716421051 36.0
30.721344907 45.0
30.726268763 60.0
30.731192619 49.0
30.736116475 51.0
30.741040331 55.0
30.745964187 44.0
30.750888043 59.0
30.755811900 59.0
30.760735756 51.0
30.765659612 60.0
30.770583468 69.0
30.775507324 59.0
30.780431180 55.0
30.785355036 57.0
30.790278892 49.0
30.795202748 58.0
30.800126604 62.0
30.805050460 49.0
30.809974316 52.0
30.814898172 44.0
30.819822028 50.0
30.824745884 54.0
30.829669740 54.0
30.834593596 56.0
30.839517452 50.0
30.844441308 47.0
30.849365164 50.0
30.854289020 32.0
30.859212876 50.0
30.864136732 55.0
30.869060588 54.0
30.873984444 39.0
30.878908300 62.0
30.883832156 56.0
30.888756012 47.0
30.893679868 56.0
30.898603724 74.0
30.903527580 49.0
30.908451436 63.0
30.913375292 58.0
30.918299148 46.0
30.923223004 44.0
30.928146860 47.0
30.933070716 46.0
30.937994572 35.0
30.942918428 62.0
30.947842284 56.0
30.952766140 53.0
30.957689996 41.0
30.962613852 42.0
30.967537708 46.0
30.972461564 51.0
30.977385420 48.0
30.982309276 60.0
30.987233132 60.0
30.992156988 47.0
30.997080844 48.0
31.002004700 57.0
31.006928556 48.0
31.011852412 55.0
31.016776268 45.0
31.021700124 45.0
31.026623980 54.0
31.031547836 44.0
31.036471692 56.0
31.041395548 47.0
31.046319404 59.0
31.051243260 56.0
31.056167116 51.0
31.061090972 49.0
31.066014828 62.0
31.070938684 56.0
31.075862540 53.0
31.080786396 49.0
31.085710252 49.0
31.090634108 46.0
31.095557964 57.0
31.100481820 50.0
31.105405676 45.0
31.110329532 47.0
31.115253388 52.0
31.120177244 57.0
31.125101100 53.0
31.130024956 49.0
31.134948812 62.0
31.139872668 65.0
31.144796524 54.0
31.149720380 61.0
31.154644236 51.0
31.159568092 39.0
31.164491948 61.0
31.169415804 58.0
31.174339660 46.0
31.179263516 57.0
31.184187372 72.0
31.189111228 58.0
31.194035084 43.0
31.198958940 66.0
31.203882796 44.0
31.208806652 48.0
31.213730508 45.0
31.218654364 47.0
31.223578220 59.0
31.228502076 39.0
31.233425932 58.0
31.238349788 46.0
31.243273644 42.0
31.248197500 72.0
31.253121357 65.0
31.258045213 40.0
31.262969069 66.0
31.267892925 49.0
31.272816781 56.0
31.277740637 52.0
31.282664493 58.0
31.287588349 54.0
31.292512205 37.0
31.297436061 59.0
31.302359917 65.0
31.307283773 53.0
31.312207629 50.0
31.317131485 50.0
31.322055341 59.0
31.326979197 57.0
31.331903053 56.0
31.336826909 43.0
31.341750765 49.0
31.346674621 54.0
31.351598477 59.0
31.356522333 59.0
31.361446189 64.0
31.366370045 50.0
31.371293901 69.0
31.376217757 63.0
31.381141613 55.0
31.386065469 49.0
31.390989325 45.0
31.395913181 49.0
31.400837037 60.0
31.405760893 55.0
31.410684749 43.0
31.415608605 54.0
31.420532461 48.0
31.425456317 55.0
31.430380173 53.0
31.435304029 50.0
31.440227885 52.0
31.445151741 51.0
31.450075597 58.0
31.454999453 52.0
31.459923309 55.0
31.464847165 56.0
31.469771021 54.0
31.474694877 28.0
31.479618733 52.0
31.484542589 64.0
31.489466445 44.0
31.494390301 54.0
31.499314157 48.0
31.504238013 55.0
31.509161869 54.0
31.514085725 54.0
31.519009581 32.0
31.523933437 49.0
31.528857293 53.0
31.533781149 45.0
31.538705005 64.0
31.543628861 54.0
31.548552717 55.0
31.553476573 52.0
31.558400429 53.0
31.563324285 50.0
31.568248141 44.0
31.573171997 35.0
31.578095853 46.0
31.583019709 34.0
31.587943565 61.0
31.592867421 50.0
31.597791277 54.0
31.602715133 48.0
31.607638989 48.0
31.612562845 55.0
31.617486701 47.0
31.622410557 52.0
31.627334413 62.0
31.632258269 64.0
31.637182125 64.0
31.642105981 65.0
31.647029837 51.0
31.651953693 58.0
31.656877549 53.0
31.661801405 49.0
31.666725261 49.0
31.671649117 60.0
31.676572973 58.0
31.681496829 48.0
31.686420685 46.0
31.691344541 48.0
31.696268397 55.0
31.701192253 55.0
31.706116109 61.0
31.711039965 63.0
31.715963821 57.0
31.720887677 49.0
31.725811533 65.0
31.730735389 65.0
31.735659245 56.0
31.740583101 54.0
31.745506957 53.0
31.750430813 39.0
31.755354670 42.0
31.760278526 58.0
31.765202382 46.0
31.770126238 47.0
31.775050094 59.0
31.779973950 59.0
31.784897806 62.0
31.789821662 41.0
31.794745518 46.0
31.799669374 54.0
31.804593230 58.0
31.809517086 54.0
31.814440942 53.0
31.819364798 67.0
31.824288654 55.0
31.829212510 41.0
31.834136366 40.0
31.839060222 63.0
31.843984078 54.0
31.848907934 52.0
31.853831790 49.0
31.858755646 45.0
31.863679502 55.0
31.868603358 53.0
31.873527214 57.0
31.878451070 59.0
31.883374926 50.0
31.888298782 44.0
31.893222638 37.0
31.898146494 53.0
31.903070350 43.0
31.907994206 52.0
31.912918062 52.0
31.917841918 61.0
31.922765774 53.0
31.927689630 69.0
31.932613486 42.0
31.937537342 57.0
31.942461198 48.0
31.947385054 46.0
31.952308910 64.0
31.957232766 55.0
31.962156622 48.0
31.967080478 40.0
31.972004334 43.0
31.976928190 49.0
31.981852046 49.0
31.986775902 61.0
31.991699758 47.0
31.996623614 44.0
32.001547470 52.0
32.006471326 38.0
32.011395182 61.0
32.016319038 60.0
32.021242894 45.0
32.026166750 44.0
32.031090606 51.0
32.036014462 53.0
32.040938318 53.0
32.045862174 50.0
32.050786030 61.0
32.055709886 45.0
32.060633742 54.0
32.065557598 56.0
32.070481454 46.0
32.075405310 57.0
32.080329166 48.0
32.085253022 50.0
32.090176878 57.0
32.095100734 53.0
32.100024590 60.0
32.104948446 55.0
32.109872302 51.0
32.114796158 53.0
32.119720014 50.0
32.124643870 64.0
32.129567726 74.0
32.134491582 63.0
32.139415438 55.0
32.144339294 50.0
32.149263150 52.0
32.154187006 53.0
32.159110862 45.0
32.164034718 64.0
32.168958574 54.0
32.173882430 55.0
32.178806286 52.0
32.183730142 56.0
32.188653998 53.0
32.193577854 54.0
32.198501710 56.0
32.203425566 48.0
32.208349422 48.0
32.213273278 62.0
32.218197134 59.0
32.223120990 61.0
32.228044846 54.0
32.232968702 58.0
32.237892558 54.0
32.242816414 45.0
32.247740270 54.0
32.252664127 31.0
32.257587983 52.0
32.262511839 56.0
32.267435695 52.0
32.272359551 54.0
32.277283407 54.0
32.282207263 39.0
32.287131119 63.0
32.292054975 51.0
32.296978831 67.0
32.301902687 52.0
32.306826543 44.0
32.311750399 54.0
32.316674255 50.0
32.321598111 46.0
32.326521967 66.0
32.331445823 41.0
32.336369679 56.0
32.341293535 68.0
32.346217391 56.0
32.351141247 69.0
32.356065103 65.0
32.360988959 51.0
32.365912815 63.0
32.370836671 68.0
32.375760527 71.0
32.380684383 77.0
32.385608239 72.0
32.390532095 66.0
32.395455951 72.0
32.400379807 67.0
32.405303663 69.0
32.410227519 71.0
32.415151375 82.0
32.420075231 76.0
32.424999087 77.0
32.429922943 68.0
32.434846799 73.0
32.439770655 71.0
32.444694511 96.0
32.449618367 84.0
32.454542223 67.0
32.459466079 70.0
32.464389935 70.0
32.469313791 56.0
32.474237647 65.0
32.479161503 70.0
32.484085359 65.0
32.489009215 66.0
32.493933071 75.0
32.498856927 70.0
32.503780783 62.0
32.508704639 61.0
32.513628495 33.0
32.518552351 84.0
32.523476207 57.0
32.528400063 56.0
32.533323919 52.0
32.538247775 58.0
32.543171631 59.0
32.548095487 57.0
32.553019343 64.0
32.557943199 45.0
32.562867055 52.0
32.567790911 53.0
32.572714767 48.0
32.577638623 51.0
32.582562479 51.0
32.587486335 65.0
32.592410191 60.0
32.597334047 61.0
32.602257903 56.0
32.607181759 59.0
32.612105615 53.0
32.617029471 57.0
32.621953327 52.0
32.626877183 51.0
32.631801039 52.0
32.636724895 67.0
32.641648751 56.0
32.646572607 61.0
32.651496463 51.0
32.656420319 54.0
32.661344175 62.0
32.666268031 54.0
32.671191887 56.0
32.676115743 62.0
32.681039599 52.0
32.685963455 62.0
32.690887311 45.0
32.695811167 49.0
32.700735023 58.0
32.705658879 61.0
32.710582735 65.0
32.715506591 54.0
32.720430447 48.0
32.725354303 53.0
32.730278159 54.0
32.735202015 50.0
32.740125871 76.0
32.745049727 54.0
32.749973583 60.0
32.754897440 44.0
32.759821296 47.0
32.764745152 53.0
32.769669008 43.0
32.774592864 50.0
32.779516720 38.0
32.784440576 63.0
32.789364432 51.0
32.794288288 54.0
32.799212144 56.0
32.804136000 47.0
32.809059856 40.0
32.813983712 58.0
32.818907568 60.0
32.823831424 50.0
32.828755280 50.0
32.833679136 55.0
32.838602992 44.0
32.843526848 58.0
32.848450704 67.0
32.853374560 61.0
32.858298416 56.0
32.863222272 63.0
32.868146128 58.0
32.873069984 67.0
32.877993840 38.0
32.882917696 51.0
32.887841552 55.0
32.892765408 64.0
32.897689264 69.0
32.902613120 53.0
32.907536976 44.0
32.912460832 63.0
32.917384688 55.0
32.922308544 51.0
32.927232400 62.0
32.932156256 49.0
32.937080112 67.0
32.942003968 52.0
32.946927824 48.0
32.951851680 55.0
32.956775536 43.0
32.961699392 48.0
32.966623248 62.0
32.971547104 46.0
32.976470960 48.0
32.981394816 66.0
32.986318672 53.0
32.991242528 57.0
32.996166384 53.0
33.001090240 52.0
33.006014096 58.0
33.010937952 56.0
33.015861808 63.0
33.020785664 45.0
33.025709520 59.0
33.030633376 65.0
33.035557232 61.0
33.040481088 57.0
33.045404944 43.0
33.050328800 50.0
33.055252656 50.0
33.060176512 55.0
33.065100368 55.0
33.070024224 47.0
33.074948080 50.0
33.079871936 45.0
33.084795792 53.0
33.089719648 46.0
33.094643504 53.0
33.099567360 46.0
33.104491216 51.0
33.109415072 63.0
33.114338928 60.0
33.119262784 57.0
33.124186640 45.0
33.129110496 51.0
33.134034352 61.0
33.138958208 51.0
33.143882064 58.0
33.148805920 48.0
33.153729776 71.0
33.158653632 58.0
33.163577488 63.0
33.168501344 43.0
33.173425200 56.0
33.178349056 66.0
33.183272912 38.0
33.188196768 46.0
33.193120624 53.0
33.198044480 50.0
33.202968336 54.0
33.207892192 50.0
33.212816048 53.0
33.217739904 69.0
33.222663760 64.0
33.227587616 53.0
33.232511472 60.0
33.237435328 41.0
33.242359184 63.0
33.247283040 53.0
33.252206897 54.0
33.257130753 45.0
33.262054609 59.0
33.266978465 58.0
33.271902321 67.0
33.276826177 56.0
33.281750033 51.0
33.286673889 56.0
33.291597745 36.0
33.296521601 61.0
33.301445457 55.0
33.306369313 41.0
33.311293169 54.0
33.316217025 50.0
33.321140881 43.0
33.326064737 74.0
33.330988593 61.0
33.335912449 61.0
33.340836305 60.0
33.345760161 62.0
33.350684017 41.0
33.355607873 42.0
33.360531729 59.0
33.365455585 65.0
33.370379441 67.0
33.375303297 60.0
33.380227153 51.0
33.385151009 52.0
33.390074865 46.0
33.394998721 68.0
33.399922577 58.0
33.404846433 48.0
33.409770289 55.0
33.414694145 55.0
33.419618001 47.0
33.424541857 51.0
33.429465713 54.0
33.434389569 57.0
33.439313425 51.0
33.444237281 59.0
33.449161137 61.0
33.454084993 70.0
33.459008849 45.0
33.463932705 53.0
33.468856561 51.0
33.473780417 53.0
33.478704273 49.0
33.483628129 45.0
33.488551985 50.0
33.493475841 53.0
33.498399697 41.0
33.503323553 56.0
33.508247409 55.0
33.513171265 48.0
33.518095121 55.0
33.523018977 45.0
33.527942833 57.0
33.532866689 58.0
33.537790545 52.0
33.542714401 62.0
33.547638257 57.0
33.552562113 37.0
33.557485969 63.0
33.562409825 50.0
33.567333681 59.0
33.572257537 58.0
33.577181393 56.0
33.582105249 60.0
33.587029105 53.0
33.591952961 48.0
33.596876817 40.0
33.601800673 45.0
33.606724529 66.0
33.611648385 59.0
33.616572241 60.0
33.621496097 62.0
33.626419953 49.0
33.631343809 55.0
33.636267665 51.0
33.641191521 55.0
33.646115377 65.0
33.651039233 49.0
33.655963089 54.0
33.660886945 73.0
33.665810801 54.0
33.670734657 64.0
33.675658513 64.0
33.680582369 53.0
33.685506225 70.0
33.690430081 49.0
33.695353937 64.0
33.700277793 61.0
33.705201649 51.0
33.710125505 64.0
33.715049361 68.0
33.719973217 67.0
33.724897073 64.0
33.729820929 65.0
33.734744785 69.0
33.739668641 57.0
33.744592497 67.0
33.749516353 62.0
33.754440210 60.0
33.759364066 51.0
33.764287922 61.0
33.769211778 62.0
33.774135634 60.0
33.779059490 62.0
33.783983346 65.0
33.788907202 62.0
33.793831058 62.0
33.798754914 62.0
33.803678770 63.0
33.808602626 56.0
33.813526482 74.0
33.818450338 72.0
33.823374194 64.0
33.828298050 61.0
33.833221906 78.0
33.838145762 58.0
33.843069618 70.0
33.847993474 78.0
33.852917330 72.0
33.857841186 71.0
33.862765042 59.0
33.867688898 79.0
33.872612754 59.0
33.877536610 62.0
33.882460466 81.0
33.887384322 60.0
33.892308178 94.0
33.897232034 83.0
33.902155890 78.0
33.907079746 109.0
33.912003602 104.0
33.916927458 129.0
33.921851314 152.0
33.926775170 183.0
33.931699026 292.0
33.936622882 366.0
33.941546738 544.0
33.946470594 709.0
33.951394450 833.0
33.956318306 879.0
33.961242162 846.0
33.966166018 810.0
33.971089874 698.0
33.976013730 536.0
33.980937586 479.0
33.985861442 340.0
33.990785298 269.0
33.995709154 203.0
34.000633010 161.0
34.005556866 144.0
34.010480722 143.0
34.015404578 111.0
34.020328434 96.0
34.025252290 89.0
34.030176146 96.0
34.035100002 110.0
34.040023858 80.0
34.044947714 86.0
34.049871570 91.0
34.054795426 100.0
34.059719282 66.0
34.064643138 83.0
34.069566994 74.0
34.074490850 64.0
34.079414706 61.0
34.084338562 64.0
34.089262418 92.0
34.094186274 64.0
34.099110130 67.0
34.104033986 68.0
34.108957842 62.0
34.113881698 68.0
34.118805554 66.0
34.123729410 64.0
34.128653266 59.0
34.133577122 54.0
34.138500978 73.0
34.143424834 57.0
34.148348690 70.0
34.153272546 77.0
34.158196402 65.0
34.163120258 64.0
34.168044114 73.0
34.172967970 61.0
34.177891826 60.0
34.182815682 60.0
34.187739538 65.0
34.192663394 70.0
34.197587250 68.0
34.202511106 55.0
34.207434962 66.0
34.212358818 73.0
34.217282674 74.0
34.222206530 73.0
34.227130386 60.0
34.232054242 57.0
34.236978098 66.0
34.241901954 66.0
34.246825810 63.0
34.251749667 63.0
34.256673523 69.0
34.261597379 48.0
34.266521235 67.0
34.271445091 66.0
34.276368947 61.0
34.281292803 63.0
34.286216659 74.0
34.291140515 63.0
34.296064371 47.0
34.300988227 63.0
34.305912083 59.0
34.310835939 54.0
34.315759795 62.0
34.320683651 52.0
34.325607507 55.0
34.330531363 58.0
34.335455219 63.0
34.340379075 65.0
34.345302931 60.0
34.350226787 57.0
34.355150643 68.0
34.360074499 67.0
34.364998355 63.0
34.369922211 61.0
34.374846067 69.0
34.379769923 68.0
34.384693779 61.0
34.389617635 54.0
34.394541491 60.0
34.399465347 66.0
34.404389203 52.0
34.409313059 54.0
34.414236915 61.0
34.419160771 77.0
34.424084627 62.0
34.429008483 68.0
34.433932339 70.0
34.438856195 69.0
34.443780051 60.0
34.448703907 68.0
34.453627763 53.0
34.458551619 75.0
34.463475475 58.0
34.468399331 70.0
34.473323187 67.0
34.478247043 59.0
34.483170899 80.0
34.488094755 57.0
34.493018611 68.0
34.497942467 48.0
34.502866323 69.0
34.507790179 53.0
34.512714035 74.0
34.517637891 69.0
34.522561747 65.0
34.527485603 53.0
34.532409459 60.0
34.537333315 61.0
34.542257171 62.0
34.547181027 61.0
34.552104883 71.0
34.557028739 71.0
34.561952595 61.0
34.566876451 66.0
34.571800307 59.0
34.576724163 62.0
34.581648019 57.0
34.586571875 59.0
34.591495731 63.0
34.596419587 57.0
34.601343443 62.0
34.606267299 46.0
34.611191155 69.0
34.616115011 67.0
34.621038867 60.0
34.625962723 70.0
34.630886579 64.0
34.635810435 64.0
34.640734291 66.0
34.645658147 58.0
34.650582003 65.0
34.655505859 85.0
34.660429715 72.0
34.665353571 61.0
34.670277427 83.0
34.675201283 93.0
34.680125139 54.0
34.685048995 63.0
34.689972851 67.0
34.694896707 70.0
34.699820563 52.0
34.704744419 67.0
34.709668275 69.0
34.714592131 64.0
34.719515987 64.0
34.724439843 64.0
34.729363699 62.0
34.734287555 69.0
34.739211411 67.0
34.744135267 62.0
34.749059123 78.0
34.753982980 60.0
34.758906836 61.0
34.763830692 87.0
34.768754548 62.0
34.773678404 68.0
34.778602260 70.0
34.783526116 84.0
34.788449972 72.0
34.793373828 76.0
34.798297684 62.0
34.803221540 75.0
34.808145396 61.0
34.813069252 70.0
34.817993108 72.0
34.822916964 55.0
34.827840820 59.0
34.832764676 57.0
34.837688532 81.0
34.842612388 81.0
34.847536244 80.0
34.852460100 59.0
34.857383956 60.0
34.862307812 83.0
34.867231668 57.0
34.872155524 81.0
34.877079380 73.0
34.882003236 71.0
34.886927092 71.0
34.891850948 71.0
34.896774804 76.0
34.901698660 55.0
34.906622516 79.0
34.911546372 89.0
34.916470228 75.0
34.921394084 70.0
34.926317940 86.0
34.931241796 69.0
34.936165652 75.0
34.941089508 65.0
34.946013364 79.0
34.950937220 73.0
34.955861076 90.0
34.960784932 75.0
34.965708788 65.0
34.970632644 72.0
34.975556500 82.0
34.980480356 96.0
34.985404212 79.0
34.990328068 81.0
34.995251924 75.0
35.000175780 80.0
35.005099636 82.0
35.010023492 87.0
35.014947348 83.0
35.019871204 71.0
35.024795060 77.0
35.029718916 81.0
35.034642772 81.0
35.039566628 73.0
35.044490484 54.0
35.049414340 61.0
35.054338196 92.0
35.059262052 71.0
35.064185908 86.0
35.069109764 71.0
35.074033620 78.0
35.078957476 77.0
35.083881332 64.0
35.088805188 82.0
35.093729044 71.0
35.098652900 85.0
35.103576756 72.0
35.108500612 90.0
35.113424468 71.0
35.118348324 76.0
35.123272180 84.0
35.128196036 96.0
35.133119892 84.0
35.138043748 68.0
35.142967604 90.0
35.147891460 95.0
35.152815316 62.0
35.157739172 66.0
35.162663028 67.0
35.167586884 71.0
35.172510740 91.0
35.177434596 79.0
35.182358452 85.0
35.187282308 77.0
35.192206164 76.0
35.197130020 73.0
35.202053876 90.0
35.206977732 85.0
35.211901588 98.0
35.216825444 88.0
35.221749300 78.0
35.226673156 95.0
35.231597012 83.0
35.236520868 97.0
35.241444724 91.0
35.246368580 93.0
35.251292437 83.0
35.256216293 100.0
35.261140149 91.0
35.266064005 110.0
35.270987861 80.0
35.275911717 88.0
35.280835573 82.0
35.285759429 82.0
35.290683285 93.0
35.295607141 84.0
35.300530997 96.0
35.305454853 91.0
35.310378709 90.0
35.315302565 88.0
35.320226421 99.0
35.325150277 74.0
35.330074133 100.0
35.334997989 88.0
35.339921845 104.0
35.344845701 96.0
35.349769557 83.0
35.354693413 107.0
35.359617269 101.0
35.364541125 100.0
35.369464981 101.0
35.374388837 84.0
35.379312693 103.0
35.384236549 99.0
35.389160405 110.0
35.394084261 99.0
35.399008117 108.0
35.403931973 96.0
35.408855829 115.0
35.413779685 111.0
35.418703541 122.0
35.423627397 103.0
35.428551253 103.0
35.433475109 116.0
35.438398965 119.0
35.443322821 114.0
35.448246677 121.0
35.453170533 110.0
35.458094389 104.0
35.463018245 112.0
35.467942101 118.0
35.472865957 121.0
35.477789813 109.0
35.482713669 143.0
35.487637525 113.0
35.492561381 102.0
35.497485237 116.0
35.502409093 124.0
35.507332949 128.0
35.512256805 138.0
35.517180661 141.0
35.522104517 129.0
35.527028373 123.0
35.531952229 129.0
35.536876085 141.0
35.541799941 124.0
35.546723797 141.0
35.551647653 123.0
35.556571509 126.0
35.561495365 159.0
35.566419221 125.0
35.571343077 137.0
35.576266933 139.0
35.581190789 142.0
35.586114645 148.0
35.591038501 145.0
35.595962357 158.0
35.600886213 163.0
35.605810069 156.0
35.610733925 162.0
35.615657781 142.0
35.620581637 152.0
35.625505493 173.0
35.630429349 179.0
35.635353205 173.0
35.640277061 192.0
35.645200917 161.0
35.650124773 173.0
35.655048629 192.0
35.659972485 186.0
35.664896341 178.0
35.669820197 203.0
35.674744053 180.0
35.679667909 182.0
35.684591765 203.0
35.689515621 174.0
35.694439477 232.0
35.699363333 260.0
35.704287189 223.0
35.709211045 218.0
35.714134901 258.0
35.719058757 256.0
35.723982613 272.0
35.728906469 241.0
35.733830325 288.0
35.738754181 287.0
35.743678037 315.0
35.748601893 279.0
35.753525750 303.0
35.758449606 328.0
35.763373462 341.0
35.768297318 318.0
35.773221174 354.0
35.778145030 320.0
35.783068886 349.0
35.787992742 378.0
35.792916598 369.0
35.797840454 406.0
35.802764310 437.0
35.807688166 472.0
35.812612022 447.0
35.817535878 569.0
35.822459734 517.0
35.827383590 568.0
35.832307446 597.0
35.837231302 662.0
35.842155158 714.0
35.847079014 707.0
35.852002870 702.0
35.856926726 774.0
35.861850582 809.0
35.866774438 865.0
35.871698294 893.0
35.876622150 968.0
35.881546006 1083.0
35.886469862 1121.0
35.891393718 1260.0
35.896317574 1305.0
35.901241430 1444.0
35.906165286 1643.0
35.911089142 1801.0
35.916012998 1997.0
35.920936854 2310.0
35.925860710 2574.0
35.930784566 2852.0
35.935708422 3155.0
35.940632278 3455.0
35.945556134 3871.0
35.950479990 4235.0
35.955403846 4515.0
35.960327702 4930.0
35.965251558 5361.0
35.970175414 5645.0
35.975099270 5874.0
35.980023126 6288.0
35.984946982 6381.0
35.989870838 6795.0
35.994794694 7019.0
35.999718550 7010.0
36.004642406 7298.0
36.009566262 7304.0
36.014490118 7276.0
36.019413974 7272.0
36.024337830 7211.0
36.029261686 7230.0
36.034185542 7123.0
36.039109398 6905.0
36.044033254 6861.0
36.048957110 6650.0
36.053880966 6465.0
36.058804822 6350.0
36.063728678 6115.0
36.068652534 5893.0
36.073576390 5680.0
36.078500246 5727.0
36.083424102 5333.0
36.088347958 5330.0
36.093271814 5122.0
36.098195670 4881.0
36.103119526 4675.0
36.108043382 4426.0
36.112967238 4192.0
36.117891094 4099.0
36.122814950 3882.0
36.127738806 3747.0
36.132662662 3536.0
36.137586518 3300.0
36.142510374 3151.0
36.147434230 2830.0
36.152358086 2667.0
36.157281942 2394.0
36.162205798 2270.0
36.167129654 2168.0
36.172053510 1881.0
36.176977366 1798.0
36.181901222 1585.0
36.186825078 1446.0
36.191748934 1426.0
36.196672790 1232.0
36.201596646 1131.0
36.206520502 1095.0
36.211444358 926.0
36.216368214 901.0
36.221292070 783.0
36.226215926 814.0
36.231139782 765.0
36.236063638 695.0
36.240987494 699.0
36.245911350 660.0
36.250835207 698.0
36.255759063 606.0
36.260682919 628.0
36.265606775 595.0
36.270530631 536.0
36.275454487 552.0
36.280378343 516.0
36.285302199 491.0
36.290226055 481.0
36.295149911 443.0
36.300073767 434.0
36.304997623 401.0
36.309921479 387.0
36.314845335 351.0
36.319769191 364.0
36.324693047 362.0
36.329616903 339.0
36.334540759 338.0
36.339464615 330.0
36.344388471 343.0
36.349312327 347.0
36.354236183 331.0
36.359160039 290.0
36.364083895 323.0
36.369007751 320.0
36.373931607 307.0
36.378855463 295.0
36.383779319 293.0
36.388703175 270.0
36.393627031 274.0
36.398550887 277.0
36.403474743 257.0
36.408398599 239.0
36.413322455 234.0
36.418246311 231.0
36.423170167 257.0
36.428094023 198.0
36.433017879 227.0
36.437941735 187.0
36.442865591 193.0
36.447789447 210.0
36.452713303 206.0
36.457637159 192.0
36.462561015 209.0
36.467484871 202.0
36.472408727 200.0
36.477332583 192.0
36.482256439 215.0
36.487180295 165.0
36.492104151 204.0
36.497028007 168.0
36.501951863 174.0
36.506875719 171.0
36.511799575 153.0
36.516723431 188.0
36.521647287 167.0
36.526571143 189.0
36.531494999 190.0
36.536418855 184.0
36.541342711 176.0
36.546266567 153.0
36.551190423 158.0
36.556114279 179.0
36.561038135 144.0
36.565961991 185.0
36.570885847 173.0
36.575809703 164.0
36.580733559 160.0
36.585657415 170.0
36.590581271 184.0
36.595505127 171.0
36.600428983 171.0
36.605352839 159.0
36.610276695 157.0
36.615200551 180.0
36.620124407 149.0
36.625048263 169.0
36.629972119 154.0
36.634895975 158.0
36.639819831 156.0
36.644743687 152.0
36.649667543 168.0
36.654591399 174.0
36.659515255 155.0
36.664439111 181.0
36.669362967 165.0
36.674286823 133.0
36.679210679 168.0
36.684134535 150.0
36.689058391 154.0
36.693982247 138.0
36.698906103 162.0
36.703829959 166.0
36.708753815 158.0
36.713677671 171.0
36.718601527 142.0
36.723525383 152.0
36.728449239 161.0
36.733373095 172.0
36.738296951 152.0
36.743220807 155.0
36.748144663 144.0
36.753068520 160.0
36.757992376 152.0
36.762916232 168.0
36.767840088 169.0
36.772763944 171.0
36.777687800 164.0
36.782611656 157.0
36.787535512 205.0
36.792459368 152.0
36.797383224 174.0
36.802307080 142.0
36.807230936 180.0
36.812154792 173.0
36.817078648 171.0
36.822002504 171.0
36.826926360 170.0
36.831850216 190.0
36.836774072 180.0
36.841697928 187.0
36.846621784 147.0
36.851545640 185.0
36.856469496 180.0
36.861393352 179.0
36.866317208 206.0
36.871241064 162.0
36.876164920 203.0
36.881088776 176.0
36.886012632 196.0
36.890936488 184.0
36.895860344 215.0
36.900784200 204.0
36.905708056 214.0
36.910631912 200.0
36.915555768 190.0
36.920479624 187.0
36.925403480 208.0
36.930327336 180.0
36.935251192 185.0
36.940175048 218.0
36.945098904 214.0
36.950022760 203.0
36.954946616 202.0
36.959870472 210.0
36.964794328 202.0
36.969718184 183.0
36.974642040 206.0
36.979565896 184.0
36.984489752 207.0
36.989413608 261.0
36.994337464 204.0
36.999261320 195.0
37.004185176 256.0
37.009109032 218.0
37.014032888 260.0
37.018956744 216.0
37.023880600 257.0
37.028804456 261.0
37.033728312 271.0
37.038652168 259.0
37.043576024 209.0
37.048499880 200.0
37.053423736 218.0
37.058347592 260.0
37.063271448 279.0
37.068195304 207.0
37.073119160 269.0
37.078043016 260.0
37.082966872 291.0
37.087890728 211.0
37.092814584 262.0
37.097738440 291.0
37.102662296 267.0
37.107586152 287.0
37.112510008 288.0
37.117433864 278.0
37.122357720 290.0
37.127281576 334.0
37.132205432 280.0
37.137129288 287.0
37.142053144 299.0
37.146977000 340.0
37.151900856 295.0
37.156824712 299.0
37.161748568 294.0
37.166672424 309.0
37.171596280 310.0
37.176520136 345.0
37.181443992 317.0
37.186367848 338.0
37.191291704 353.0
37.196215560 319.0
37.201139416 331.0
37.206063272 353.0
37.210987128 339.0
37.215910984 343.0
37.220834840 386.0
37.225758696 321.0
37.230682552 373.0
37.235606408 316.0
37.240530264 339.0
37.245454120 347.0
37.250377977 348.0
37.255301833 388.0
37.260225689 360.0
37.265149545 418.0
37.270073401 395.0
37.274997257 372.0
37.279921113 408.0
37.284844969 399.0
37.289768825 412.0
37.294692681 422.0
37.299616537 418.0
37.304540393 446.0
37.309464249 419.0
37.314388105 439.0
37.319311961 414.0
37.324235817 505.0
37.329159673 485.0
37.334083529 474.0
37.339007385 459.0
37.343931241 485.0
37.348855097 502.0
37.353778953 503.0
37.358702809 486.0
37.363626665 497.0
37.368550521 533.0
37.373474377 542.0
37.378398233 485.0
37.383322089 558.0
37.388245945 552.0
37.393169801 577.0
37.398093657 586.0
37.403017513 595.0
37.407941369 599.0
37.412865225 621.0
37.417789081 633.0
37.422712937 622.0
37.427636793 630.0
37.432560649 691.0
37.437484505 674.0
37.442408361 657.0
37.447332217 687.0
37.452256073 713.0
37.457179929 762.0
37.462103785 761.0
37.467027641 828.0
37.471951497 789.0
37.476875353 847.0
37.481799209 910.0
37.486723065 974.0
37.491646921 987.0
37.496570777 1054.0
37.501494633 1232.0
37.506418489 1346.0
37.511342345 1441.0
37.516266201 1511.0
37.521190057 1777.0
37.526113913 1927.0
37.531037769 2092.0
37.535961625 2207.0
37.540885481 2281.0
37.545809337 2506.0
37.550733193 2562.0
37.555657049 2590.0
37.560580905 2624.0
37.565504761 2605.0
37.570428617 2499.0
37.575352473 2569.0
37.580276329 2494.0
37.585200185 2443.0
37.590124041 2544.0
37.595047897 2451.0
37.599971753 2482.0
37.604895609 2695.0
37.609819465 2711.0
37.614743321 2970.0
37.619667177 3135.0
37.624591033 3336.0
37.629514889 3730.0
37.634438745 4094.0
37.639362601 4593.0
37.644286457 5330.0
37.649210313 5989.0
37.654134169 7060.0
37.659058025 8347.0
37.663981881 9861.0
37.668905737 12394.0
37.673829593 15804.0
37.678753449 21046.0
37.683677305 30346.0
37.688601161 45038.0
37.693525017 76597.0
37.698448873 129581.0
37.703372729 195347.0
37.708296585 242379.0
37.713220441 262952.0
37.718144297 263219.0
37.723068153 243546.0
37.727992009 199233.0
37.732915865 137949.0
37.737839721 86410.0
37.742763577 55479.0
37.747687433 37044.0
37.752611290 26415.0
37.757535146 20104.0
37.762459002 16513.0
37.767382858 15716.0
37.772306714 15902.0
37.777230570 17570.0
37.782154426 21949.0
37.787078282 31492.0
37.792002138 47755.0
37.796925994 74491.0
37.801849850 100640.0
37.806773706 122050.0
37.811697562 129084.0
37.816621418 127531.0
37.821545274 115697.0
37.826469130 91711.0
37.831392986 65521.0
37.836316842 42219.0
37.841240698 27839.0
37.846164554 18329.0
37.851088410 13322.0
37.856012266 9771.0
37.860936122 7836.0
37.865859978 6417.0
37.870783834 5307.0
37.875707690 4638.0
37.880631546 4012.0
37.885555402 3689.0
37.890479258 3250.0
37.895403114 3011.0
37.900326970 2793.0
37.905250826 2548.0
37.910174682 2409.0
37.915098538 2183.0
37.920022394 2137.0
37.924946250 1916.0
37.929870106 1831.0
37.934793962 1699.0
37.939717818 1667.0
37.944641674 1617.0
37.949565530 1480.0
37.954489386 1439.0
37.959413242 1350.0
37.964337098 1328.0
37.969260954 1135.0
37.974184810 1232.0
37.979108666 1106.0
37.984032522 1114.0
37.988956378 1068.0
37.993880234 1050.0
37.998804090 1019.0
38.003727946 984.0
38.008651802 957.0
38.013575658 899.0
38.018499514 876.0
38.023423370 869.0
38.028347226 806.0
38.033271082 796.0
38.038194938 764.0
38.043118794 710.0
38.048042650 684.0
38.052966506 671.0
38.057890362 723.0
38.062814218 671.0
38.067738074 615.0
38.072661930 613.0
38.077585786 643.0
38.082509642 562.0
38.087433498 609.0
38.092357354 600.0
38.097281210 568.0
38.102205066 593.0
38.107128922 524.0
38.112052778 563.0
38.116976634 573.0
38.121900490 539.0
38.126824346 529.0
38.131748202 488.0
38.136672058 502.0
38.141595914 498.0
38.146519770 507.0
38.151443626 468.0
38.156367482 444.0
38.161291338 438.0
38.166215194 454.0
38.171139050 409.0
38.176062906 451.0
38.180986762 442.0
38.185910618 395.0
38.190834474 387.0
38.195758330 427.0
38.200682186 421.0
38.205606042 409.0
38.210529898 342.0
38.215453754 403.0
38.220377610 388.0
38.225301466 424.0
38.230225322 360.0
38.235149178 365.0
38.240073034 338.0
38.244996890 333.0
38.249920747 316.0
38.254844603 305.0
38.259768459 338.0
38.264692315 292.0
38.269616171 303.0
38.274540027 321.0
38.279463883 278.0
38.284387739 312.0
38.289311595 275.0
38.294235451 259.0
38.299159307 304.0
38.304083163 285.0
38.309007019 290.0
38.313930875 272.0
38.318854731 278.0
38.323778587 210.0
38.328702443 255.0
38.333626299 258.0
38.338550155 258.0
38.343474011 201.0
38.348397867 197.0
38.353321723 207.0
38.358245579 202.0
38.363169435 214.0
38.368093291 186.0
38.373017147 186.0
38.377941003 175.0
38.382864859 181.0
38.387788715 180.0
38.392712571 174.0
38.397636427 190.0
38.402560283 174.0
38.407484139 177.0
38.412407995 171.0
38.417331851 177.0
38.422255707 153.0
38.427179563 165.0
38.432103419 161.0
38.437027275 165.0
38.441951131 152.0
38.446874987 163.0
38.451798843 146.0
38.456722699 152.0
38.461646555 159.0
38.466570411 139.0
38.471494267 156.0
38.476418123 166.0
38.481341979 153.0
38.486265835 155.0
38.491189691 148.0
38.496113547 128.0
38.501037403 136.0
38.505961259 156.0
38.510885115 133.0
38.515808971 119.0
38.520732827 143.0
38.525656683 126.0
38.530580539 147.0
38.535504395 142.0
38.540428251 127.0
38.545352107 144.0
38.550275963 127.0
38.555199819 143.0
38.560123675 148.0
38.565047531 135.0
38.569971387 126.0
38.574895243 123.0
38.579819099 112.0
38.584742955 123.0
38.589666811 121.0
38.594590667 115.0
38.599514523 116.0
38.604438379 125.0
38.609362235 120.0
38.614286091 123.0
38.619209947 126.0
38.624133803 121.0
38.629057659 119.0
38.633981515 113.0
38.638905371 116.0
38.643829227 107.0
38.648753083 131.0
38.653676939 95.0
38.658600795 102.0
38.663524651 107.0
38.668448507 102.0
38.673372363 121.0
38.678296219 102.0
38.683220075 107.0
38.688143931 109.0
38.693067787 91.0
38.697991643 91.0
38.702915499 103.0
38.707839355 99.0
38.712763211 101.0
38.717687067 96.0
38.722610923 93.0
38.727534779 87.0
38.732458635 86.0
38.737382491 80.0
38.742306347 118.0
38.747230203 92.0
38.752154060 97.0
38.757077916 99.0
38.762001772 90.0
38.766925628 93.0
38.771849484 90.0
38.776773340 89.0
38.781697196 87.0
38.786621052 82.0
38.791544908 81.0
38.796468764 96.0
38.801392620 98.0
38.806316476 79.0
38.811240332 84.0
38.816164188 97.0
38.821088044 85.0
38.826011900 76.0
38.830935756 87.0
38.835859612 95.0
38.840783468 75.0
38.845707324 98.0
38.850631180 90.0
38.855555036 85.0
38.860478892 98.0
38.865402748 85.0
38.870326604 77.0
38.875250460 87.0
38.880174316 91.0
38.885098172 97.0
38.890022028 80.0
38.894945884 87.0
38.899869740 84.0
38.904793596 90.0
38.909717452 79.0
38.914641308 78.0
38.919565164 76.0
38.924489020 83.0
38.929412876 99.0
38.934336732 73.0
38.939260588 89.0
38.944184444 67.0
38.949108300 69.0
38.954032156 90.0
38.958956012 98.0
38.963879868 78.0
38.968803724 85.0
38.973727580 73.0
38.978651436 97.0
38.983575292 84.0
38.988499148 76.0
38.993423004 75.0
38.998346860 79.0
39.003270716 76.0
39.008194572 97.0
39.013118428 70.0
39.018042284 87.0
39.022966140 86.0
39.027889996 63.0
39.032813852 77.0
39.037737708 67.0
39.042661564 90.0
39.047585420 73.0
39.052509276 83.0
39.057433132 73.0
39.062356988 61.0
39.067280844 81.0
39.072204700 71.0
39.077128556 74.0
39.082052412 83.0
39.086976268 69.0
39.091900124 95.0
39.096823980 90.0
39.101747836 77.0
39.106671692 84.0
39.111595548 67.0
39.116519404 80.0
39.121443260 61.0
39.126367116 56.0
39.131290972 65.0
39.136214828 55.0
39.141138684 69.0
39.146062540 75.0
39.150986396 73.0
39.155910252 77.0
39.160834108 95.0
39.165757964 71.0
39.170681820 69.0
39.175605676 70.0
39.180529532 80.0
39.185453388 74.0
39.190377244 86.0
39.195301100 66.0
39.200224956 69.0
39.205148812 70.0
39.210072668 84.0
39.214996524 60.0
39.219920380 60.0
39.224844236 58.0
39.229768092 72.0
39.234691948 63.0
39.239615804 74.0
39.244539660 60.0
39.249463517 62.0
39.254387373 58.0
39.259311229 61.0
39.264235085 78.0
39.269158941 81.0
39.274082797 64.0
39.279006653 65.0
39.283930509 80.0
39.288854365 68.0
39.293778221 59.0
39.298702077 87.0
39.303625933 64.0
39.308549789 75.0
39.313473645 65.0
39.318397501 60.0
39.323321357 85.0
39.328245213 59.0
39.333169069 64.0
39.338092925 60.0
39.343016781 84.0
39.347940637 69.0
39.352864493 62.0
39.357788349 53.0
39.362712205 62.0
39.367636061 57.0
39.372559917 69.0
39.377483773 65.0
39.382407629 69.0
39.387331485 68.0
39.392255341 46.0
39.397179197 65.0
39.402103053 66.0
39.407026909 69.0
39.411950765 69.0
39.416874621 69.0
39.421798477 58.0
39.426722333 79.0
39.431646189 84.0
39.436570045 62.0
39.441493901 75.0
39.446417757 71.0
39.451341613 61.0
39.456265469 66.0
39.461189325 67.0
39.466113181 60.0
39.471037037 69.0
39.475960893 59.0
39.480884749 62.0
39.485808605 61.0
39.490732461 58.0
39.495656317 69.0
39.500580173 71.0
39.505504029 61.0
39.510427885 65.0
39.515351741 78.0
39.520275597 61.0
39.525199453 80.0
39.530123309 58.0
39.535047165 54.0
39.539971021 86.0
39.544894877 78.0
39.549818733 48.0
39.554742589 67.0
39.559666445 74.0
39.564590301 61.0
39.569514157 66.0
39.574438013 66.0
39.579361869 63.0
39.584285725 53.0
39.589209581 72.0
39.594133437 62.0
39.599057293 67.0
39.603981149 71.0
39.608905005 61.0
39.613828861 72.0
39.618752717 64.0
39.623676573 65.0
39.628600429 50.0
39.633524285 57.0
39.638448141 64.0
39.643371997 66.0
39.648295853 68.0
39.653219709 63.0
39.658143565 49.0
39.663067421 60.0
39.667991277 53.0
39.672915133 64.0
39.677838989 63.0
39.682762845 44.0
39.687686701 53.0
39.692610557 63.0
39.697534413 61.0
39.702458269 66.0
39.707382125 71.0
39.712305981 54.0
39.717229837 65.0
39.722153693 42.0
39.727077549 76.0
39.732001405 61.0
39.736925261 53.0
39.741849117 63.0
39.746772973 67.0
39.751696830 67.0
39.756620686 61.0
39.761544542 49.0
39.766468398 73.0
39.771392254 58.0
39.776316110 63.0
39.781239966 76.0
39.786163822 73.0
39.791087678 65.0
39.796011534 52.0
39.800935390 50.0
39.805859246 67.0
39.810783102 70.0
39.815706958 57.0
39.820630814 46.0
39.825554670 70.0
39.830478526 50.0
39.835402382 59.0
39.840326238 61.0
39.845250094 55.0
39.850173950 69.0
39.855097806 52.0
39.860021662 63.0
39.864945518 70.0
39.869869374 59.0
39.874793230 79.0
39.879717086 58.0
39.884640942 80.0
39.889564798 50.0
39.894488654 67.0
39.899412510 60.0
39.904336366 63.0
39.909260222 57.0
39.914184078 64.0
39.919107934 51.0
39.924031790 47.0
39.928955646 68.0
39.933879502 72.0
39.938803358 68.0
39.943727214 59.0
39.948651070 70.0
39.953574926 45.0
39.958498782 73.0
39.963422638 59.0
39.968346494 61.0
39.973270350 58.0
39.978194206 64.0
39.983118062 43.0
39.988041918 50.0
39.992965774 59.0
39.997889630 72.0
