55.001861930 14.0
55.006785786 16.0
55.011709642 19.0
55.016633498 16.0
55.021557354 8.0
55.026481210 17.0
55.031405066 8.0
55.036328922 12.0
55.041252778 18.0
55.046176634 7.0
55.051100490 16.0
55.056024346 14.0
55.060948202 10.0
55.065872058 11.0
55.070795914 15.0
55.075719770 10.0
55.080643626 13.0
55.085567482 19.0
55.090491338 16.0
55.095415194 11.0
55.100339050 16.0
55.105262906 11.0
55.110186762 12.0
55.115110618 14.0
55.120034474 9.0
55.124958330 10.0
55.129882186 12.0
55.134806042 13.0
55.139729898 15.0
55.144653754 9.0
55.149577610 10.0
55.154501466 19.0
55.159425322 16.0
55.164349178 18.0
55.169273034 14.0
55.174196890 21.0
55.179120746 10.0
55.184044602 10.0
55.188968459 9.0
55.193892315 20.0
55.198816171 6.0
55.203740027 12.0
55.208663883 17.0
55.213587739 12.0
55.218511595 19.0
55.223435451 17.0
55.228359307 14.0
55.233283163 14.0
55.238207019 12.0
55.243130875 10.0
55.248054731 12.0
55.252978587 12.0
55.257902443 8.0
55.262826299 12.0
55.267750155 16.0
55.272674011 18.0
55.277597867 18.0
55.282521723 15.0
55.287445579 14.0
55.292369435 21.0
55.297293291 12.0
55.302217147 18.0
55.307141003 15.0
55.312064859 11.0
55.316988715 12.0
55.321912571 9.0
55.326836427 19.0
55.331760283 17.0
55.336684139 15.0
55.341607995 14.0
55.346531851 11.0
55.351455707 13.0
55.356379563 12.0
55.361303419 11.0
55.366227275 20.0
55.371151131 15.0
55.376074987 15.0
55.380998843 7.0
55.385922699 8.0
55.390846555 12.0
55.395770411 12.0
55.400694267 17.0
55.405618123 18.0
55.410541979 20.0
55.415465835 16.0
55.420389691 10.0
55.425313547 11.0
55.430237403 12.0
55.435161259 8.0
55.440085115 14.0
55.445008971 15.0
55.449932827 11.0
55.454856683 15.0
55.459780539 12.0
55.464704395 15.0
55.469628251 13.0
55.474552107 15.0
55.479475963 12.0
55.484399819 10.0
55.489323675 12.0
55.494247531 15.0
55.499171387 11.0
55.504095243 22.0
55.509019099 14.0
55.513942955 13.0
55.518866811 12.0
55.523790667 13.0
55.528714523 18.0
55.533638379 10.0
55.538562235 12.0
55.543486091 10.0
55.548409947 13.0
55.553333803 15.0
55.558257660 18.0
55.563181516 16.0
55.568105372 13.0
55.573029228 11.0
55.577953084 15.0
55.582876940 20.0
55.587800796 13.0
55.592724652 12.0
55.597648508 16.0
55.602572364 18.0
55.607496220 12.0
55.612420076 15.0
55.617343932 14.0
55.622267788 13.0
55.627191644 12.0
55.632115500 10.0
55.637039356 19.0
55.641963212 12.0
55.646887068 17.0
55.651810924 14.0
55.656734780 11.0
55.661658636 16.0
55.666582492 13.0
55.671506348 15.0
55.676430204 9.0
55.681354060 13.0
55.686277916 13.0
55.691201772 15.0
55.696125628 15.0
55.701049484 15.0
55.705973340 9.0
55.710897196 11.0
55.715821052 17.0
55.720744908 11.0
55.725668764 10.0
55.730592620 14.0
55.735516476 14.0
55.740440332 11.0
55.745364188 14.0
55.750288044 11.0
55.755211900 9.0
55.760135756 11.0
55.765059612 18.0
55.769983468 8.0
55.774907324 16.0
55.779831180 9.0
55.784755036 12.0
55.789678892 15.0
55.794602748 10.0
55.799526604 10.0
55.804450460 21.0
55.809374316 12.0
55.814298172 11.0
55.819222028 6.0
55.824145884 13.0
55.829069740 15.0
55.833993596 10.0
55.838917452 12.0
55.843841308 11.0
55.848765164 14.0
55.853689020 18.0
55.858612876 15.0
55.863536732 17.0
55.868460588 16.0
55.873384444 15.0
55.878308300 13.0
55.883232156 9.0
55.888156012 12.0
55.893079868 13.0
55.898003724 13.0
55.902927580 6.0
55.907851436 6.0
55.912775292 9.0
55.917699148 9.0
55.922623004 18.0
55.927546860 16.0
55.932470717 12.0
55.937394573 12.0
55.942318429 10.0
55.947242285 15.0
55.952166141 21.0
55.957089997 16.0
55.962013853 10.0
55.966937709 10.0
55.971861565 15.0
55.976785421 16.0
55.981709277 18.0
55.986633133 10.0
55.991556989 11.0
55.996480845 15.0
56.001404701 11.0
56.006328557 14.0
56.011252413 11.0
56.016176269 14.0
56.021100125 14.0
56.026023981 14.0
56.030947837 8.0
56.035871693 14.0
56.040795549 10.0
56.045719405 14.0
56.050643261 11.0
56.055567117 19.0
56.060490973 14.0
56.065414829 11.0
56.070338685 18.0
56.075262541 7.0
56.080186397 9.0
56.085110253 10.0
56.090034109 13.0
56.094957965 13.0
56.099881821 13.0
56.104805677 16.0
56.109729533 20.0
56.114653389 15.0
56.119577245 11.0
56.124501101 8.0
56.129424957 17.0
56.134348813 15.0
56.139272669 14.0
56.144196525 17.0
56.149120381 13.0
56.154044237 16.0
56.158968093 11.0
56.163891949 12.0
56.168815805 11.0
56.173739661 13.0
56.178663517 8.0
56.183587373 10.0
56.188511229 13.0
56.193435085 13.0
56.198358941 8.0
56.203282797 6.0
56.208206653 8.0
56.213130509 12.0
56.218054365 15.0
56.222978221 14.0
56.227902077 22.0
56.232825933 10.0
56.237749789 4.0
56.242673645 13.0
56.247597501 12.0
56.252521357 14.0
56.257445213 12.0
56.262369069 13.0
56.267292925 12.0
56.272216781 16.0
56.277140637 14.0
56.282064493 21.0
56.286988349 9.0
56.291912205 10.0
56.296836061 8.0
56.301759918 14.0
56.306683774 14.0
56.311607630 14.0
56.316531486 11.0
56.321455342 11.0
56.326379198 15.0
56.331303054 10.0
56.336226910 13.0
56.341150766 13.0
56.346074622 8.0
56.350998478 17.0
56.355922334 20.0
56.360846190 9.0
56.365770046 13.0
56.370693902 10.0
56.375617758 12.0
56.380541614 9.0
56.385465470 18.0
56.390389326 8.0
56.395313182 13.0
56.400237038 9.0
56.405160894 16.0
56.410084750 8.0
56.415008606 13.0
56.419932462 16.0
56.424856318 9.0
56.429780174 16.0
56.434704030 16.0
56.439627886 12.0
56.444551742 10.0
56.449475598 16.0
56.454399454 17.0
56.459323310 13.0
56.464247166 24.0
56.469171022 14.0
56.474094878 9.0
56.479018734 18.0
56.483942590 11.0
56.488866446 5.0
56.493790302 7.0
56.498714158 13.0
56.503638014 14.0
56.508561870 18.0
56.513485726 9.0
56.518409582 17.0
56.523333438 13.0
56.528257294 19.0
56.533181150 7.0
56.538105006 13.0
56.543028862 16.0
56.547952718 12.0
56.552876574 14.0
56.557800430 12.0
56.562724286 13.0
56.567648142 15.0
56.572571998 13.0
56.577495854 12.0
56.582419710 14.0
56.587343566 10.0
56.592267422 10.0
56.597191278 9.0
56.602115134 12.0
56.607038990 19.0
56.611962846 18.0
56.616886702 20.0
56.621810558 13.0
56.626734414 15.0
56.631658270 17.0
56.636582126 20.0
56.641505982 15.0
56.646429838 21.0
56.651353694 17.0
56.656277550 19.0
56.661201406 21.0
56.666125262 10.0
56.671049119 12.0
56.675972975 9.0
56.680896831 20.0
56.685820687 9.0
56.690744543 12.0
56.695668399 12.0
56.700592255 16.0
56.705516111 19.0
56.710439967 19.0
56.715363823 20.0
56.720287679 8.0
56.725211535 20.0
56.730135391 7.0
56.735059247 9.0
56.739983103 13.0
56.744906959 7.0
56.749830815 19.0
56.754754671 10.0
56.759678527 12.0
56.764602383 17.0
56.769526239 14.0
56.774450095 17.0
56.779373951 12.0
56.784297807 10.0
56.789221663 12.0
56.794145519 12.0
56.799069375 12.0
56.803993231 13.0
56.808917087 15.0
56.813840943 19.0
56.818764799 16.0
56.823688655 9.0
56.828612511 10.0
56.833536367 17.0
56.838460223 14.0
56.843384079 8.0
56.848307935 9.0
56.853231791 9.0
56.858155647 13.0
56.863079503 16.0
56.868003359 12.0
56.872927215 9.0
56.877851071 10.0
56.882774927 15.0
56.887698783 17.0
56.892622639 14.0
56.897546495 15.0
56.902470351 15.0
56.907394207 19.0
56.912318063 18.0
56.917241919 13.0
56.922165775 21.0
56.927089631 11.0
56.932013487 11.0
56.936937343 15.0
56.941861199 13.0
56.946785055 11.0
56.951708911 17.0
56.956632767 14.0
56.961556623 18.0
56.966480479 12.0
56.971404335 10.0
56.976328191 14.0
56.981252047 11.0
56.986175903 18.0
56.991099759 16.0
56.996023615 18.0
57.000947471 11.0
57.005871327 9.0
57.010795183 8.0
57.015719039 18.0
57.020642895 10.0
57.025566751 16.0
57.030490607 15.0
57.035414463 20.0
57.040338320 10.0
57.045262176 10.0
57.050186032 23.0
57.055109888 13.0
57.060033744 17.0
57.064957600 6.0
57.069881456 12.0
57.074805312 21.0
57.079729168 17.0
57.084653024 12.0
57.089576880 18.0
57.094500736 15.0
57.099424592 14.0
57.104348448 19.0
57.109272304 14.0
57.114196160 19.0
57.119120016 12.0
57.124043872 19.0
57.128967728 16.0
57.133891584 6.0
57.138815440 16.0
57.143739296 12.0
57.148663152 12.0
57.153587008 18.0
57.158510864 9.0
57.163434720 15.0
57.168358576 11.0
57.173282432 18.0
57.178206288 20.0
57.183130144 15.0
57.188054000 17.0
57.192977856 13.0
57.197901712 15.0
57.202825568 19.0
57.207749424 16.0
57.212673280 16.0
57.217597136 12.0
57.222520992 13.0
57.227444848 19.0
57.232368704 19.0
57.237292560 14.0
57.242216416 13.0
57.247140272 17.0
57.252064128 20.0
57.256987984 18.0
57.261911840 22.0
57.266835696 15.0
57.271759552 19.0
57.276683408 18.0
57.281607264 24.0
57.286531120 11.0
57.291454976 23.0
57.296378832 14.0
57.301302688 23.0
57.306226544 20.0
57.311150400 19.0
57.316074256 16.0
57.320998112 23.0
57.325921968 20.0
57.330845824 23.0
57.335769680 19.0
57.340693536 24.0
57.345617392 18.0
57.350541248 20.0
57.355465104 18.0
57.360388960 23.0
57.365312816 27.0
57.370236672 20.0
57.375160528 23.0
57.380084384 22.0
57.385008240 18.0
57.389932096 21.0
57.394855952 18.0
57.399779808 25.0
57.404703664 14.0
57.409627521 21.0
57.414551377 29.0
57.419475233 25.0
57.424399089 29.0
57.429322945 25.0
57.434246801 24.0
57.439170657 24.0
57.444094513 21.0
57.449018369 32.0
57.453942225 21.0
57.458866081 30.0
57.463789937 21.0
57.468713793 15.0
57.473637649 27.0
57.478561505 26.0
57.483485361 16.0
57.488409217 19.0
57.493333073 26.0
57.498256929 17.0
57.503180785 24.0
57.508104641 26.0
57.513028497 20.0
57.517952353 28.0
57.522876209 24.0
57.527800065 23.0
57.532723921 22.0
57.537647777 25.0
57.542571633 26.0
57.547495489 26.0
57.552419345 17.0
57.557343201 19.0
57.562267057 25.0
57.567190913 16.0
57.572114769 23.0
57.577038625 25.0
57.581962481 22.0
57.586886337 13.0
57.591810193 18.0
57.596734049 20.0
57.601657905 25.0
57.606581761 17.0
57.611505617 22.0
57.616429473 19.0
57.621353329 25.0
57.626277185 21.0
57.631201041 24.0
57.636124897 20.0
57.641048753 14.0
57.645972609 18.0
57.650896465 28.0
57.655820321 20.0
57.660744177 13.0
57.665668033 20.0
57.670591889 19.0
57.675515745 18.0
57.680439601 14.0
57.685363457 22.0
57.690287313 18.0
57.695211169 17.0
57.700135025 24.0
57.705058881 26.0
57.709982737 17.0
57.714906593 17.0
57.719830449 23.0
57.724754305 16.0
57.729678161 15.0
57.734602017 20.0
57.739525873 20.0
57.744449729 19.0
57.749373585 21.0
57.754297441 18.0
57.759221297 11.0
57.764145153 17.0
57.769069009 27.0
57.773992865 13.0
57.778916721 18.0
57.783840578 19.0
57.788764434 11.0
57.793688290 18.0
57.798612146 20.0
57.803536002 10.0
57.808459858 15.0
57.813383714 15.0
57.818307570 14.0
57.823231426 16.0
57.828155282 14.0
57.833079138 17.0
57.838002994 11.0
57.842926850 15.0
57.847850706 13.0
57.852774562 20.0
57.857698418 10.0
57.862622274 16.0
57.867546130 17.0
57.872469986 12.0
57.877393842 10.0
57.882317698 17.0
57.887241554 16.0
57.892165410 22.0
57.897089266 15.0
57.902013122 28.0
57.906936978 14.0
57.911860834 13.0
57.916784690 13.0
57.921708546 8.0
57.926632402 17.0
57.931556258 13.0
57.936480114 19.0
57.941403970 7.0
57.946327826 8.0
57.951251682 14.0
57.956175538 11.0
57.961099394 20.0
57.966023250 15.0
57.970947106 22.0
57.975870962 11.0
57.980794818 11.0
57.985718674 17.0
57.990642530 12.0
57.995566386 17.0
58.000490242 19.0
58.005414098 14.0
58.010337954 10.0
58.015261810 14.0
58.020185666 14.0
58.025109522 12.0
58.030033378 17.0
58.034957234 5.0
58.039881090 16.0
58.044804946 21.0
58.049728802 11.0
58.054652658 12.0
58.059576514 19.0
58.064500370 16.0
58.069424226 19.0
58.074348082 14.0
58.079271938 12.0
58.084195794 14.0
58.089119650 12.0
58.094043506 14.0
58.098967362 16.0
58.103891218 8.0
58.108815074 7.0
58.113738930 11.0
58.118662786 11.0
58.123586642 15.0
58.128510498 10.0
58.133434354 13.0
58.138358210 18.0
58.143282066 13.0
58.148205922 13.0
58.153129779 14.0
58.158053635 13.0
58.162977491 19.0
58.167901347 12.0
58.172825203 13.0
58.177749059 13.0
58.182672915 14.0
58.187596771 15.0
58.192520627 12.0
58.197444483 17.0
58.202368339 11.0
58.207292195 10.0
58.212216051 14.0
58.217139907 10.0
58.222063763 10.0
58.226987619 11.0
58.231911475 22.0
58.236835331 18.0
58.241759187 11.0
58.246683043 11.0
58.251606899 11.0
58.256530755 13.0
58.261454611 8.0
58.266378467 19.0
58.271302323 12.0
58.276226179 12.0
58.281150035 14.0
58.286073891 17.0
58.290997747 12.0
58.295921603 19.0
58.300845459 8.0
58.305769315 10.0
58.310693171 13.0
58.315617027 15.0
58.320540883 11.0
58.325464739 18.0
58.330388595 13.0
58.335312451 22.0
58.340236307 12.0
58.345160163 7.0
58.350084019 15.0
58.355007875 16.0
58.359931731 12.0
58.364855587 14.0
58.369779443 6.0
58.374703299 6.0
58.379627155 9.0
58.384551011 13.0
58.389474867 8.0
58.394398723 13.0
58.399322579 18.0
58.404246435 13.0
58.409170291 18.0
58.414094147 12.0
58.419018003 9.0
58.423941859 8.0
58.428865715 12.0
58.433789571 15.0
58.438713427 14.0
58.443637283 12.0
58.448561139 13.0
58.453484995 15.0
58.458408851 9.0
58.463332707 8.0
58.468256563 12.0
58.473180419 10.0
58.478104275 14.0
58.483028131 11.0
58.487951987 11.0
58.492875843 19.0
58.497799699 17.0
58.502723555 17.0
58.507647411 19.0
58.512571267 6.0
58.517495123 9.0
58.522418980 13.0
58.527342836 13.0
58.532266692 9.0
58.537190548 14.0
58.542114404 18.0
58.547038260 14.0
58.551962116 11.0
58.556885972 12.0
58.561809828 12.0
58.566733684 12.0
58.571657540 9.0
58.576581396 8.0
58.581505252 18.0
58.586429108 14.0
58.591352964 13.0
58.596276820 16.0
58.601200676 10.0
58.606124532 13.0
58.611048388 12.0
58.615972244 15.0
58.620896100 11.0
58.625819956 10.0
58.630743812 22.0
58.635667668 21.0
58.640591524 10.0
58.645515380 19.0
58.650439236 13.0
58.655363092 11.0
58.660286948 10.0
58.665210804 8.0
58.670134660 13.0
58.675058516 13.0
58.679982372 12.0
58.684906228 18.0
58.689830084 11.0
58.694753940 19.0
58.699677796 19.0
58.704601652 15.0
58.709525508 23.0
58.714449364 7.0
58.719373220 13.0
58.724297076 12.0
58.729220932 15.0
58.734144788 9.0
58.739068644 13.0
58.743992500 16.0
58.748916356 12.0
58.753840212 12.0
58.758764068 13.0
58.763687924 8.0
58.768611780 14.0
58.773535636 6.0
58.778459492 9.0
58.783383348 15.0
58.788307204 19.0
58.793231060 6.0
58.798154916 13.0
58.803078772 9.0
58.808002628 10.0
58.812926484 13.0
58.817850340 17.0
58.822774196 18.0
58.827698052 15.0
58.832621908 14.0
58.837545764 14.0
58.842469620 13.0
58.847393476 14.0
58.852317332 13.0
58.857241188 16.0
58.862165044 11.0
58.867088900 16.0
58.872012756 10.0
58.876936612 24.0
58.881860468 16.0
58.886784324 6.0
58.891708181 8.0
58.896632037 13.0
58.901555893 11.0
58.906479749 11.0
58.911403605 20.0
58.916327461 10.0
58.921251317 13.0
58.926175173 14.0
58.931099029 10.0
58.936022885 12.0
58.940946741 8.0
58.945870597 14.0
58.950794453 19.0
58.955718309 8.0
58.960642165 14.0
58.965566021 6.0
58.970489877 9.0
58.975413733 12.0
58.980337589 10.0
58.985261445 11.0
58.990185301 16.0
58.995109157 17.0
59.000033013 6.0
59.004956869 18.0
59.009880725 6.0
59.014804581 18.0
59.019728437 14.0
59.024652293 8.0
59.029576149 18.0
59.034500005 12.0
59.039423861 11.0
59.044347717 17.0
59.049271573 12.0
59.054195429 10.0
59.059119285 10.0
59.064043141 16.0
59.068966997 12.0
59.073890853 13.0
59.078814709 12.0
59.083738565 21.0
59.088662421 14.0
59.093586277 11.0
59.098510133 12.0
59.103433989 17.0
59.108357845 15.0
59.113281701 14.0
59.118205557 7.0
59.123129413 15.0
59.128053269 13.0
59.132977125 19.0
59.137900981 20.0
59.142824837 12.0
59.147748693 13.0
59.152672549 19.0
59.157596405 16.0
59.162520261 12.0
59.167444117 7.0
59.172367973 17.0
59.177291829 11.0
59.182215685 13.0
59.187139541 13.0
59.192063397 17.0
59.196987253 20.0
59.201911109 9.0
59.206834965 11.0
59.211758821 12.0
59.216682677 9.0
59.221606533 12.0
59.226530389 14.0
59.231454245 15.0
59.236378101 12.0
59.241301957 14.0
59.246225813 14.0
59.251149669 21.0
59.256073525 11.0
59.260997382 11.0
59.265921238 15.0
59.270845094 17.0
59.275768950 15.0
59.280692806 12.0
59.285616662 17.0
59.290540518 11.0
59.295464374 20.0
59.300388230 19.0
59.305312086 13.0
59.310235942 16.0
59.315159798 14.0
59.320083654 15.0
59.325007510 11.0
59.329931366 18.0
59.334855222 11.0
59.339779078 14.0
59.344702934 14.0
59.349626790 14.0
59.354550646 10.0
59.359474502 11.0
59.364398358 21.0
59.369322214 21.0
59.374246070 12.0
59.379169926 13.0
59.384093782 12.0
59.389017638 18.0
59.393941494 16.0
59.398865350 10.0
59.403789206 11.0
59.408713062 14.0
59.413636918 13.0
59.418560774 12.0
59.423484630 4.0
59.428408486 11.0
59.433332342 13.0
59.438256198 17.0
59.443180054 11.0
59.448103910 13.0
59.453027766 14.0
59.457951622 13.0
59.462875478 11.0
59.467799334 13.0
59.472723190 13.0
59.477647046 13.0
59.482570902 15.0
59.487494758 8.0
59.492418614 16.0
59.497342470 12.0
59.502266326 12.0
59.507190182 9.0
59.512114038 10.0
59.517037894 15.0
59.521961750 9.0
59.526885606 13.0
59.531809462 23.0
59.536733318 14.0
59.541657174 12.0
59.546581030 16.0
59.551504886 12.0
59.556428742 14.0
59.561352598 11.0
59.566276454 14.0
59.571200310 7.0
59.576124166 16.0
59.581048022 11.0
59.585971878 13.0
59.590895734 16.0
59.595819590 14.0
59.600743446 10.0
59.605667302 19.0
59.610591158 11.0
59.615515014 16.0
59.620438870 11.0
59.625362726 12.0
59.630286582 6.0
59.635210439 13.0
59.640134295 17.0
59.645058151 12.0
59.649982007 8.0
59.654905863 5.0
59.659829719 17.0
59.664753575 12.0
59.669677431 13.0
59.674601287 14.0
59.679525143 9.0
59.684448999 11.0
59.689372855 19.0
59.694296711 11.0
59.699220567 14.0
59.704144423 14.0
59.709068279 12.0
59.713992135 12.0
59.718915991 15.0
59.723839847 21.0
59.728763703 10.0
59.733687559 8.0
59.738611415 17.0
59.743535271 5.0
59.748459127 15.0
59.753382983 9.0
59.758306839 17.0
59.763230695 8.0
59.768154551 10.0
59.773078407 13.0
59.778002263 14.0
59.782926119 16.0
59.787849975 14.0
59.792773831 18.0
59.797697687 14.0
59.802621543 14.0
59.807545399 17.0
59.812469255 23.0
59.817393111 18.0
59.822316967 9.0
59.827240823 16.0
59.832164679 15.0
59.837088535 11.0
59.842012391 8.0
59.846936247 8.0
59.851860103 15.0
59.856783959 14.0
59.861707815 15.0
59.866631671 18.0
59.871555527 11.0
59.876479383 14.0
59.881403239 9.0
59.886327095 15.0
59.891250951 22.0
59.896174807 6.0
59.901098663 14.0
59.906022519 12.0
59.910946375 13.0
59.915870231 8.0
59.920794087 15.0
59.925717943 16.0
59.930641799 11.0
59.935565655 11.0
59.940489511 18.0
59.945413367 14.0
59.950337223 20.0
59.955261079 16.0
59.960184935 17.0
59.965108791 12.0
59.970032647 10.0
59.974956503 18.0
59.979880359 10.0
59.984804215 10.0
59.989728071 14.0
59.994651927 14.0
59.999575783 11.0
60.004499640 11.0
60.009423496 7.0
60.014347352 13.0
60.019271208 10.0
60.024195064 11.0
60.029118920 17.0
60.034042776 14.0
60.038966632 8.0
60.043890488 13.0
60.048814344 17.0
60.053738200 14.0
60.058662056 15.0
60.063585912 29.0
60.068509768 17.0
60.073433624 12.0
60.078357480 16.0
60.083281336 6.0
60.088205192 15.0
60.093129048 12.0
60.098052904 18.0
60.102976760 20.0
60.107900616 13.0
60.112824472 18.0
60.117748328 18.0
60.122672184 10.0
60.127596040 19.0
60.132519896 9.0
60.137443752 9.0
60.142367608 14.0
60.147291464 16.0
60.152215320 14.0
60.157139176 15.0
60.162063032 16.0
60.166986888 16.0
60.171910744 8.0
60.176834600 11.0
60.181758456 13.0
60.186682312 17.0
60.191606168 20.0
60.196530024 18.0
60.201453880 9.0
60.206377736 14.0
60.211301592 11.0
60.216225448 18.0
60.221149304 14.0
60.226073160 12.0
60.230997016 8.0
60.235920872 15.0
60.240844728 20.0
60.245768584 15.0
60.250692440 22.0
60.255616296 17.0
60.260540152 16.0
60.265464008 15.0
60.270387864 18.0
60.275311720 20.0
60.280235576 21.0
60.285159432 26.0
60.290083288 11.0
60.295007144 24.0
60.299931000 17.0
60.304854856 20.0
60.309778712 21.0
60.314702568 11.0
60.319626424 28.0
60.324550280 18.0
60.329474136 20.0
60.334397992 17.0
60.339321848 19.0
60.344245704 19.0
60.349169560 17.0
60.354093416 9.0
60.359017272 19.0
60.363941128 25.0
60.368864984 16.0
60.373788841 19.0
60.378712697 21.0
60.383636553 13.0
60.388560409 22.0
60.393484265 17.0
60.398408121 11.0
60.403331977 23.0
60.408255833 17.0
60.413179689 15.0
60.418103545 21.0
60.423027401 17.0
60.427951257 18.0
60.432875113 20.0
60.437798969 22.0
60.442722825 14.0
60.447646681 20.0
60.452570537 17.0
60.457494393 17.0
60.462418249 21.0
60.467342105 20.0
60.472265961 13.0
60.477189817 26.0
60.482113673 16.0
60.487037529 15.0
60.491961385 21.0
60.496885241 14.0
60.501809097 12.0
60.506732953 25.0
60.511656809 18.0
60.516580665 20.0
60.521504521 12.0
60.526428377 21.0
60.531352233 22.0
60.536276089 20.0
60.541199945 20.0
60.546123801 15.0
60.551047657 24.0
60.555971513 22.0
60.560895369 24.0
60.565819225 25.0
60.570743081 16.0
60.575666937 19.0
60.580590793 12.0
60.585514649 16.0
60.590438505 24.0
60.595362361 20.0
60.600286217 26.0
60.605210073 23.0
60.610133929 25.0
60.615057785 23.0
60.619981641 34.0
60.624905497 28.0
60.629829353 23.0
60.634753209 17.0
60.639677065 29.0
60.644600921 35.0
60.649524777 28.0
60.654448633 31.0
60.659372489 32.0
60.664296345 30.0
60.669220201 41.0
60.674144057 33.0
60.679067913 37.0
60.683991769 54.0
60.688915625 45.0
60.693839481 50.0
60.698763337 50.0
60.703687193 64.0
60.708611049 70.0
60.713534905 81.0
60.718458761 95.0
60.723382617 132.0
60.728306473 122.0
60.733230329 155.0
60.738154185 188.0
60.743078042 264.0
60.748001898 295.0
60.752925754 343.0
60.757849610 428.0
60.762773466 470.0
60.767697322 481.0
60.772621178 571.0
60.777545034 630.0
60.782468890 662.0
60.787392746 608.0
60.792316602 673.0
60.797240458 616.0
60.802164314 624.0
60.807088170 576.0
60.812012026 504.0
60.816935882 458.0
60.821859738 410.0
60.826783594 360.0
60.831707450 342.0
60.836631306 282.0
60.841555162 263.0
60.846479018 259.0
60.851402874 269.0
60.856326730 234.0
60.861250586 218.0
60.866174442 194.0
60.871098298 200.0
60.876022154 186.0
60.880946010 203.0
60.885869866 168.0
60.890793722 158.0
60.895717578 118.0
60.900641434 122.0
60.905565290 116.0
60.910489146 96.0
60.915413002 93.0
60.920336858 74.0
60.925260714 69.0
60.930184570 62.0
60.935108426 71.0
60.940032282 61.0
60.944956138 69.0
60.949879994 61.0
60.954803850 49.0
60.959727706 52.0
60.964651562 47.0
60.969575418 39.0
60.974499274 57.0
60.979423130 57.0
60.984346986 54.0
60.989270842 39.0
60.994194698 38.0
60.999118554 31.0
61.004042410 35.0
61.008966266 42.0
61.013890122 21.0
61.018813978 27.0
61.023737834 30.0
61.028661690 45.0
61.033585546 29.0
61.038509402 38.0
61.043433258 28.0
61.048357114 26.0
61.053280970 38.0
61.058204826 24.0
61.063128682 27.0
61.068052538 27.0
61.072976394 35.0
61.077900250 22.0
61.082824106 28.0
61.087747962 26.0
61.092671818 27.0
61.097595674 30.0
61.102519530 24.0
61.107443386 41.0
61.112367243 18.0
61.117291099 27.0
61.122214955 32.0
61.127138811 29.0
61.132062667 29.0
61.136986523 28.0
61.141910379 35.0
61.146834235 28.0
61.151758091 34.0
61.156681947 20.0
61.161605803 27.0
61.166529659 24.0
61.171453515 30.0
61.176377371 42.0
61.181301227 22.0
61.186225083 25.0
61.191148939 26.0
61.196072795 24.0
61.200996651 20.0
61.205920507 25.0
61.210844363 18.0
61.215768219 24.0
61.220692075 22.0
61.225615931 19.0
61.230539787 24.0
61.235463643 27.0
61.240387499 24.0
61.245311355 29.0
61.250235211 22.0
61.255159067 22.0
61.260082923 14.0
61.265006779 23.0
61.269930635 30.0
61.274854491 22.0
61.279778347 13.0
61.284702203 25.0
61.289626059 28.0
61.294549915 19.0
61.299473771 22.0
61.304397627 17.0
61.309321483 27.0
61.314245339 22.0
61.319169195 19.0
61.324093051 15.0
61.329016907 24.0
61.333940763 26.0
61.338864619 23.0
61.343788475 22.0
61.348712331 26.0
61.353636187 22.0
61.358560043 20.0
61.363483899 20.0
61.368407755 27.0
61.373331611 15.0
61.378255467 22.0
61.383179323 16.0
61.388103179 21.0
61.393027035 27.0
61.397950891 24.0
61.402874747 27.0
61.407798603 27.0
61.412722459 21.0
61.417646315 13.0
61.422570171 15.0
61.427494027 29.0
61.432417883 13.0
61.437341739 21.0
61.442265595 24.0
61.447189451 14.0
61.452113307 16.0
61.457037163 32.0
61.461961019 19.0
61.466884875 32.0
61.471808731 14.0
61.476732587 25.0
61.481656443 22.0
61.486580300 19.0
61.491504156 18.0
61.496428012 22.0
61.501351868 19.0
61.506275724 19.0
61.511199580 17.0
61.516123436 21.0
61.521047292 22.0
61.525971148 18.0
61.530895004 28.0
61.535818860 25.0
61.540742716 24.0
61.545666572 22.0
61.550590428 12.0
61.555514284 23.0
61.560438140 23.0
61.565361996 19.0
61.570285852 20.0
61.575209708 22.0
61.580133564 17.0
61.585057420 17.0
61.589981276 23.0
61.594905132 18.0
61.599828988 20.0
61.604752844 19.0
61.609676700 16.0
61.614600556 19.0
61.619524412 32.0
61.624448268 22.0
61.629372124 24.0
61.634295980 19.0
61.639219836 25.0
61.644143692 28.0
61.649067548 29.0
61.653991404 18.0
61.658915260 32.0
61.663839116 26.0
61.668762972 20.0
61.673686828 21.0
61.678610684 18.0
61.683534540 20.0
61.688458396 24.0
61.693382252 19.0
61.698306108 15.0
61.703229964 30.0
61.708153820 20.0
61.713077676 23.0
61.718001532 16.0
61.722925388 19.0
61.727849244 9.0
61.732773100 21.0
61.737696956 29.0
61.742620812 29.0
61.747544668 17.0
61.752468524 19.0
61.757392380 22.0
61.762316236 19.0
61.767240092 20.0
61.772163948 21.0
61.777087804 19.0
61.782011660 14.0
61.786935516 22.0
61.791859372 19.0
61.796783228 27.0
61.801707084 19.0
61.806630940 21.0
61.811554796 29.0
61.816478652 24.0
61.821402508 25.0
61.826326364 30.0
61.831250220 27.0
61.836174076 23.0
61.841097932 20.0
61.846021788 18.0
61.850945644 15.0
61.855869501 25.0
61.860793357 22.0
61.865717213 18.0
61.870641069 27.0
61.875564925 12.0
61.880488781 22.0
61.885412637 19.0
61.890336493 28.0
61.895260349 15.0
61.900184205 12.0
61.905108061 30.0
61.910031917 26.0
61.914955773 17.0
61.919879629 23.0
61.924803485 36.0
61.929727341 22.0
61.934651197 17.0
61.939575053 23.0
61.944498909 20.0
61.949422765 22.0
61.954346621 24.0
61.959270477 23.0
61.964194333 16.0
61.969118189 24.0
61.974042045 20.0
61.978965901 29.0
61.983889757 23.0
61.988813613 23.0
61.993737469 18.0
61.998661325 15.0
62.003585181 27.0
62.008509037 35.0
62.013432893 29.0
62.018356749 18.0
62.023280605 21.0
62.028204461 23.0
62.033128317 20.0
62.038052173 24.0
62.042976029 23.0
62.047899885 24.0
62.052823741 26.0
62.057747597 22.0
62.062671453 18.0
62.067595309 13.0
62.072519165 23.0
62.077443021 26.0
62.082366877 26.0
62.087290733 22.0
62.092214589 25.0
62.097138445 33.0
62.102062301 26.0
62.106986157 22.0
62.111910013 31.0
62.116833869 21.0
62.121757725 27.0
62.126681581 20.0
62.131605437 18.0
62.136529293 28.0
62.141453149 34.0
62.146377005 33.0
62.151300861 25.0
62.156224717 13.0
62.161148573 27.0
62.166072429 27.0
62.170996285 21.0
62.175920141 25.0
62.180843997 22.0
62.185767853 33.0
62.190691709 34.0
62.195615565 27.0
62.200539421 27.0
62.205463277 23.0
62.210387133 17.0
62.215310989 19.0
62.220234845 30.0
62.225158702 31.0
62.230082558 26.0
62.235006414 30.0
62.239930270 25.0
62.244854126 32.0
62.249777982 30.0
62.254701838 37.0
62.259625694 35.0
62.264549550 24.0
62.269473406 22.0
62.274397262 19.0
62.279321118 22.0
62.284244974 28.0
62.289168830 25.0
62.294092686 29.0
62.299016542 27.0
62.303940398 25.0
62.308864254 25.0
62.313788110 22.0
62.318711966 30.0
62.323635822 27.0
62.328559678 33.0
62.333483534 38.0
62.338407390 29.0
62.343331246 41.0
62.348255102 29.0
62.353178958 29.0
62.358102814 30.0
62.363026670 27.0
62.367950526 26.0
62.372874382 24.0
62.377798238 18.0
62.382722094 22.0
62.387645950 30.0
62.392569806 30.0
62.397493662 30.0
62.402417518 35.0
62.407341374 28.0
62.412265230 32.0
62.417189086 31.0
62.422112942 20.0
62.427036798 29.0
62.431960654 19.0
62.436884510 30.0
62.441808366 29.0
62.446732222 36.0
62.451656078 27.0
62.456579934 28.0
62.461503790 31.0
62.466427646 32.0
62.471351502 32.0
62.476275358 30.0
62.481199214 30.0
62.486123070 26.0
62.491046926 25.0
62.495970782 30.0
62.500894638 34.0
62.505818494 22.0
62.510742350 36.0
62.515666206 25.0
62.520590062 27.0
62.525513918 28.0
62.530437774 33.0
62.535361630 32.0
62.540285486 30.0
62.545209342 40.0
62.550133198 32.0
62.555057054 45.0
62.559980910 28.0
62.564904766 34.0
62.569828622 25.0
62.574752478 31.0
62.579676334 43.0
62.584600190 34.0
62.589524046 31.0
62.594447903 29.0
62.599371759 33.0
62.604295615 25.0
62.609219471 40.0
62.614143327 32.0
62.619067183 30.0
62.623991039 31.0
62.628914895 48.0
62.633838751 34.0
62.638762607 30.0
62.643686463 30.0
62.648610319 29.0
62.653534175 34.0
62.658458031 34.0
62.663381887 25.0
62.668305743 44.0
62.673229599 47.0
62.678153455 27.0
62.683077311 45.0
62.688001167 35.0
62.692925023 36.0
62.697848879 39.0
62.702772735 43.0
62.707696591 26.0
62.712620447 41.0
62.717544303 38.0
62.722468159 34.0
62.727392015 44.0
62.732315871 31.0
62.737239727 42.0
62.742163583 43.0
62.747087439 35.0
62.752011295 29.0
62.756935151 42.0
62.761859007 32.0
62.766782863 43.0
62.771706719 38.0
62.776630575 43.0
62.781554431 31.0
62.786478287 31.0
62.791402143 39.0
62.796325999 52.0
62.801249855 38.0
62.806173711 43.0
62.811097567 57.0
62.816021423 41.0
62.820945279 41.0
62.825869135 49.0
62.830792991 44.0
62.835716847 34.0
62.840640703 42.0
62.845564559 42.0
62.850488415 35.0
62.855412271 42.0
62.860336127 46.0
62.865259983 33.0
62.870183839 48.0
62.875107695 43.0
62.880031551 51.0
62.884955407 41.0
62.889879263 47.0
62.894803119 40.0
62.899726975 40.0
62.904650831 58.0
62.909574687 50.0
62.914498543 38.0
62.919422399 41.0
62.924346255 39.0
62.929270111 39.0
62.934193967 48.0
62.939117823 34.0
62.944041679 51.0
62.948965535 43.0
62.953889391 38.0
62.958813247 43.0
62.963737104 38.0
62.968660960 38.0
62.973584816 34.0
62.978508672 46.0
62.983432528 51.0
62.988356384 45.0
62.993280240 50.0
62.998204096 42.0
63.003127952 44.0
63.008051808 55.0
63.012975664 54.0
63.017899520 36.0
63.022823376 44.0
63.027747232 48.0
63.032671088 50.0
63.037594944 56.0
63.042518800 51.0
63.047442656 55.0
63.052366512 50.0
63.057290368 33.0
63.062214224 48.0
63.067138080 54.0
63.072061936 57.0
63.076985792 49.0
63.081909648 45.0
63.086833504 44.0
63.091757360 54.0
63.096681216 52.0
63.101605072 55.0
63.106528928 54.0
63.111452784 55.0
63.116376640 52.0
63.121300496 72.0
63.126224352 58.0
63.131148208 51.0
63.136072064 64.0
63.140995920 45.0
63.145919776 50.0
63.150843632 47.0
63.155767488 63.0
63.160691344 54.0
63.165615200 56.0
63.170539056 56.0
63.175462912 60.0
63.180386768 53.0
63.185310624 47.0
63.190234480 49.0
63.195158336 55.0
63.200082192 51.0
63.205006048 58.0
63.209929904 58.0
63.214853760 60.0
63.219777616 64.0
63.224701472 69.0
63.229625328 72.0
63.234549184 67.0
63.239473040 67.0
63.244396896 62.0
63.249320752 69.0
63.254244608 68.0
63.259168464 63.0
63.264092320 70.0
63.269016176 72.0
63.273940032 75.0
63.278863888 81.0
63.283787744 95.0
63.288711600 66.0
63.293635456 85.0
63.298559312 87.0
63.303483168 62.0
63.308407024 73.0
63.313330880 75.0
63.318254736 73.0
63.323178592 72.0
63.328102448 84.0
63.333026304 88.0
63.337950161 81.0
63.342874017 70.0
63.347797873 64.0
63.352721729 74.0
63.357645585 73.0
63.362569441 84.0
63.367493297 89.0
63.372417153 82.0
63.377341009 84.0
63.382264865 82.0
63.387188721 80.0
63.392112577 91.0
63.397036433 90.0
63.401960289 78.0
63.406884145 86.0
63.411808001 82.0
63.416731857 92.0
63.421655713 92.0
63.426579569 92.0
63.431503425 86.0
63.436427281 80.0
63.441351137 87.0
63.446274993 83.0
63.451198849 103.0
63.456122705 87.0
63.461046561 71.0
63.465970417 86.0
63.470894273 104.0
63.475818129 95.0
63.480741985 99.0
63.485665841 108.0
63.490589697 125.0
63.495513553 101.0
63.500437409 113.0
63.505361265 83.0
63.510285121 107.0
63.515208977 117.0
63.520132833 115.0
63.525056689 126.0
63.529980545 109.0
63.534904401 123.0
63.539828257 114.0
63.544752113 120.0
63.549675969 113.0
63.554599825 115.0
63.559523681 128.0
63.564447537 124.0
63.569371393 146.0
63.574295249 130.0
63.579219105 136.0
63.584142961 123.0
63.589066817 128.0
63.593990673 147.0
63.598914529 135.0
63.603838385 128.0
63.608762241 141.0
63.613686097 119.0
63.618609953 157.0
63.623533809 149.0
63.628457665 156.0
63.633381521 156.0
63.638305377 135.0
63.643229233 148.0
63.648153089 166.0
63.653076945 176.0
63.658000801 165.0
63.662924657 166.0
63.667848513 188.0
63.672772369 168.0
63.677696225 176.0
63.682620081 199.0
63.687543937 164.0
63.692467793 180.0
63.697391649 205.0
63.702315505 201.0
63.707239362 186.0
63.712163218 210.0
63.717087074 210.0
63.722010930 190.0
63.726934786 216.0
63.731858642 220.0
63.736782498 228.0
63.741706354 196.0
63.746630210 245.0
63.751554066 241.0
63.756477922 241.0
63.761401778 239.0
63.766325634 229.0
63.771249490 225.0
63.776173346 260.0
63.781097202 225.0
63.786021058 260.0
63.790944914 291.0
63.795868770 277.0
63.800792626 290.0
63.805716482 265.0
63.810640338 284.0
63.815564194 303.0
63.820488050 299.0
63.825411906 286.0
63.830335762 322.0
63.835259618 320.0
63.840183474 315.0
63.845107330 354.0
63.850031186 334.0
63.854955042 330.0
63.859878898 349.0
63.864802754 367.0
63.869726610 346.0
63.874650466 357.0
63.879574322 399.0
63.884498178 426.0
63.889422034 377.0
63.894345890 425.0
63.899269746 440.0
63.904193602 412.0
63.909117458 436.0
63.914041314 465.0
63.918965170 459.0
63.923889026 444.0
63.928812882 475.0
63.933736738 528.0
63.938660594 485.0
63.943584450 497.0
63.948508306 502.0
63.953432162 514.0
63.958356018 553.0
63.963279874 549.0
63.968203730 580.0
63.973127586 565.0
63.978051442 564.0
63.982975298 604.0
63.987899154 604.0
63.992823010 674.0
63.997746866 616.0
64.002670722 619.0
64.007594578 683.0
64.012518434 650.0
64.017442290 703.0
64.022366146 778.0
64.027290002 725.0
64.032213858 710.0
64.037137714 749.0
64.042061570 778.0
64.046985426 793.0
64.051909282 784.0
64.056833138 842.0
64.061756994 842.0
64.066680850 850.0
64.071604706 854.0
64.076528563 951.0
64.081452419 874.0
64.086376275 940.0
64.091300131 1008.0
64.096223987 975.0
64.101147843 980.0
64.106071699 1004.0
64.110995555 1068.0
64.115919411 1093.0
64.120843267 1084.0
64.125767123 1130.0
64.130690979 1137.0
64.135614835 1208.0
64.140538691 1213.0
64.145462547 1193.0
64.150386403 1223.0
64.155310259 1276.0
64.160234115 1286.0
64.165157971 1264.0
64.170081827 1342.0
64.175005683 1297.0
64.179929539 1392.0
64.184853395 1381.0
64.189777251 1398.0
64.194701107 1440.0
64.199624963 1481.0
64.204548819 1603.0
64.209472675 1504.0
64.214396531 1579.0
64.219320387 1587.0
64.224244243 1607.0
64.229168099 1705.0
64.234091955 1716.0
64.239015811 1658.0
64.243939667 1810.0
64.248863523 1815.0
64.253787379 1810.0
64.258711235 1820.0
64.263635091 1843.0
64.268558947 1790.0
64.273482803 1834.0
64.278406659 1907.0
64.283330515 1935.0
64.288254371 1947.0
64.293178227 1872.0
64.298102083 1962.0
64.303025939 1971.0
64.307949795 1947.0
64.312873651 1998.0
64.317797507 1939.0
64.322721363 1973.0
64.327645219 1886.0
64.332569075 1997.0
64.337492931 2101.0
64.342416787 2021.0
64.347340643 2011.0
64.352264499 2047.0
64.357188355 1874.0
64.362112211 2026.0
64.367036067 2023.0
64.371959923 1957.0
64.376883779 1941.0
64.381807635 1941.0
64.386731491 1901.0
64.391655347 1995.0
64.396579203 1898.0
64.401503059 1929.0
64.406426915 1820.0
64.411350771 1815.0
64.416274627 1862.0
64.421198483 1770.0
64.426122339 1848.0
64.431046195 1847.0
64.435970051 1757.0
64.440893907 1792.0
64.445817764 1824.0
64.450741620 1665.0
64.455665476 1657.0
64.460589332 1691.0
64.465513188 1718.0
64.470437044 1637.0
64.475360900 1577.0
64.480284756 1517.0
64.485208612 1541.0
64.490132468 1541.0
64.495056324 1477.0
64.499980180 1533.0
64.504904036 1458.0
64.509827892 1468.0
64.514751748 1505.0
64.519675604 1474.0
64.524599460 1396.0
64.529523316 1348.0
64.534447172 1416.0
64.539371028 1339.0
64.544294884 1355.0
64.549218740 1305.0
64.554142596 1273.0
64.559066452 1194.0
64.563990308 1206.0
64.568914164 1164.0
64.573838020 1176.0
64.578761876 1153.0
64.583685732 1167.0
64.588609588 1016.0
64.593533444 1023.0
64.598457300 987.0
64.603381156 962.0
64.608305012 987.0
64.613228868 924.0
64.618152724 944.0
64.623076580 920.0
64.628000436 898.0
64.632924292 886.0
64.637848148 866.0
64.642772004 807.0
64.647695860 863.0
64.652619716 840.0
64.657543572 773.0
64.662467428 807.0
64.667391284 695.0
64.672315140 700.0
64.677238996 700.0
64.682162852 732.0
64.687086708 681.0
64.692010564 681.0
64.696934420 674.0
64.701858276 674.0
64.706782132 598.0
64.711705988 621.0
64.716629844 577.0
64.721553700 613.0
64.726477556 627.0
64.731401412 537.0
64.736325268 556.0
64.741249124 503.0
64.746172980 541.0
64.751096836 523.0
64.756020692 509.0
64.760944548 456.0
64.765868404 488.0
64.770792260 496.0
64.775716116 488.0
64.780639972 421.0
64.785563828 429.0
64.790487684 386.0
64.795411540 424.0
64.800335396 425.0
64.805259252 417.0
64.810183108 390.0
64.815106965 378.0
64.820030821 361.0
64.824954677 393.0
64.829878533 348.0
64.834802389 349.0
64.839726245 339.0
64.844650101 350.0
64.849573957 360.0
64.854497813 360.0
64.859421669 318.0
64.864345525 358.0
64.869269381 330.0
64.874193237 293.0
64.879117093 277.0
64.884040949 309.0
64.888964805 296.0
64.893888661 293.0
64.898812517 286.0
64.903736373 305.0
64.908660229 283.0
64.913584085 285.0
64.918507941 287.0
64.923431797 292.0
64.928355653 283.0
64.933279509 273.0
64.938203365 265.0
64.943127221 244.0
64.948051077 273.0
64.952974933 246.0
64.957898789 225.0
64.962822645 230.0
64.967746501 239.0
64.972670357 227.0
64.977594213 241.0
64.982518069 201.0
64.987441925 223.0
64.992365781 223.0
64.997289637 219.0
65.002213493 207.0
65.007137349 239.0
65.012061205 216.0
65.016985061 191.0
65.021908917 201.0
65.026832773 218.0
65.031756629 201.0
65.036680485 190.0
65.041604341 210.0
65.046528197 162.0
65.051452053 182.0
65.056375909 185.0
65.061299765 172.0
65.066223621 187.0
65.071147477 183.0
65.076071333 181.0
65.080995189 156.0
65.085919045 161.0
65.090842901 160.0
65.095766757 168.0
65.100690613 160.0
65.105614469 149.0
65.110538325 162.0
65.115462181 136.0
65.120386037 134.0
65.125309893 150.0
65.130233749 140.0
65.135157605 150.0
65.140081461 151.0
65.145005317 128.0
65.149929173 131.0
65.154853029 126.0
65.159776885 131.0
65.164700741 134.0
65.169624597 151.0
65.174548453 121.0
65.179472309 122.0
65.184396165 119.0
65.189320022 124.0
65.194243878 135.0
65.199167734 134.0
65.204091590 120.0
65.209015446 128.0
65.213939302 142.0
65.218863158 94.0
65.223787014 108.0
65.228710870 89.0
65.233634726 102.0
65.238558582 104.0
65.243482438 121.0
65.248406294 106.0
65.253330150 118.0
65.258254006 113.0
65.263177862 106.0
65.268101718 95.0
65.273025574 100.0
65.277949430 108.0
65.282873286 114.0
65.287797142 113.0
65.292720998 121.0
65.297644854 112.0
65.302568710 111.0
65.307492566 88.0
65.312416422 95.0
65.317340278 106.0
65.322264134 97.0
65.327187990 92.0
65.332111846 95.0
65.337035702 92.0
65.341959558 93.0
65.346883414 87.0
65.351807270 83.0
65.356731126 84.0
65.361654982 108.0
65.366578838 95.0
65.371502694 76.0
65.376426550 93.0
65.381350406 81.0
65.386274262 84.0
65.391198118 95.0
65.396121974 96.0
65.401045830 100.0
65.405969686 81.0
65.410893542 76.0
65.415817398 96.0
65.420741254 86.0
65.425665110 95.0
65.430588966 83.0
65.435512822 81.0
65.440436678 84.0
65.445360534 80.0
65.450284390 81.0
65.455208246 74.0
65.460132102 91.0
65.465055958 79.0
65.469979814 79.0
65.474903670 80.0
65.479827526 66.0
65.484751382 72.0
65.489675238 66.0
65.494599094 82.0
65.499522950 70.0
65.504446806 78.0
65.509370662 69.0
65.514294518 74.0
65.519218374 84.0
65.524142230 63.0
65.529066086 74.0
65.533989942 69.0
65.538913798 77.0
65.543837654 83.0
65.548761510 63.0
65.553685366 78.0
65.558609223 82.0
65.563533079 66.0
65.568456935 75.0
65.573380791 64.0
65.578304647 57.0
65.583228503 71.0
65.588152359 70.0
65.593076215 63.0
65.598000071 51.0
65.602923927 72.0
65.607847783 66.0
65.612771639 76.0
65.617695495 88.0
65.622619351 67.0
65.627543207 57.0
65.632467063 62.0
65.637390919 67.0
65.642314775 52.0
65.647238631 59.0
65.652162487 60.0
65.657086343 68.0
65.662010199 64.0
65.666934055 70.0
65.671857911 76.0
65.676781767 60.0
65.681705623 62.0
65.686629479 61.0
65.691553335 54.0
65.696477191 72.0
65.701401047 73.0
65.706324903 72.0
65.711248759 52.0
65.716172615 56.0
65.721096471 66.0
65.726020327 72.0
65.730944183 68.0
65.735868039 59.0
65.740791895 74.0
65.745715751 68.0
65.750639607 71.0
65.755563463 61.0
65.760487319 80.0
65.765411175 75.0
65.770335031 56.0
65.775258887 62.0
65.780182743 66.0
65.785106599 64.0
65.790030455 64.0
65.794954311 83.0
65.799878167 58.0
65.804802023 60.0
65.809725879 57.0
65.814649735 63.0
65.819573591 53.0
65.824497447 67.0
65.829421303 63.0
65.834345159 78.0
65.839269015 69.0
65.844192871 60.0
65.849116727 56.0
65.854040583 56.0
65.858964439 67.0
65.863888295 67.0
65.868812151 66.0
65.873736007 72.0
65.878659863 56.0
65.883583719 65.0
65.888507575 52.0
65.893431431 73.0
65.898355287 73.0
65.903279143 68.0
65.908202999 68.0
65.913126855 67.0
65.918050711 46.0
65.922974567 65.0
65.927898424 73.0
65.932822280 64.0
65.937746136 55.0
65.942669992 52.0
65.947593848 81.0
65.952517704 72.0
65.957441560 63.0
65.962365416 78.0
65.967289272 72.0
65.972213128 72.0
65.977136984 61.0
65.982060840 69.0
65.986984696 65.0
65.991908552 59.0
65.996832408 60.0
66.001756264 62.0
66.006680120 56.0
66.011603976 53.0
66.016527832 55.0
66.021451688 46.0
66.026375544 46.0
66.031299400 57.0
66.036223256 52.0
66.041147112 76.0
66.046070968 76.0
66.050994824 67.0
66.055918680 75.0
66.060842536 60.0
66.065766392 69.0
66.070690248 72.0
66.075614104 70.0
66.080537960 78.0
66.085461816 57.0
66.090385672 65.0
66.095309528 55.0
66.100233384 64.0
66.105157240 74.0
66.110081096 69.0
66.115004952 63.0
66.119928808 58.0
66.124852664 73.0
66.129776520 73.0
66.134700376 63.0
66.139624232 60.0
66.144548088 59.0
66.149471944 71.0
66.154395800 62.0
66.159319656 80.0
66.164243512 77.0
66.169167368 65.0
66.174091224 75.0
66.179015080 80.0
66.183938936 64.0
66.188862792 66.0
66.193786648 75.0
66.198710504 61.0
66.203634360 72.0
66.208558216 74.0
66.213482072 93.0
66.218405928 76.0
66.223329784 69.0
66.228253640 90.0
66.233177496 77.0
66.238101352 67.0
66.243025208 74.0
66.247949064 79.0
66.252872920 61.0
66.257796776 78.0
66.262720632 84.0
66.267644488 67.0
66.272568344 70.0
66.277492200 70.0
66.282416056 89.0
66.287339912 79.0
66.292263768 88.0
66.297187625 78.0
66.302111481 82.0
66.307035337 56.0
66.311959193 76.0
66.316883049 101.0
66.321806905 61.0
66.326730761 86.0
66.331654617 75.0
66.336578473 76.0
66.341502329 77.0
66.346426185 67.0
66.351350041 63.0
66.356273897 89.0
66.361197753 70.0
66.366121609 86.0
66.371045465 84.0
66.375969321 92.0
66.380893177 76.0
66.385817033 86.0
66.390740889 78.0
66.395664745 71.0
66.400588601 90.0
66.405512457 88.0
66.410436313 88.0
66.415360169 83.0
66.420284025 97.0
66.425207881 84.0
66.430131737 81.0
66.435055593 81.0
66.439979449 89.0
66.444903305 86.0
66.449827161 81.0
66.454751017 82.0
66.459674873 78.0
66.464598729 84.0
66.469522585 101.0
66.474446441 79.0
66.479370297 84.0
66.484294153 87.0
66.489218009 85.0
66.494141865 83.0
66.499065721 83.0
66.503989577 92.0
66.508913433 84.0
66.513837289 91.0
66.518761145 86.0
66.523685001 87.0
66.528608857 87.0
66.533532713 85.0
66.538456569 79.0
66.543380425 115.0
66.548304281 95.0
66.553228137 88.0
66.558151993 85.0
66.563075849 84.0
66.567999705 89.0
66.572923561 107.0
66.577847417 85.0
66.582771273 97.0
66.587695129 118.0
66.592618985 95.0
66.597542841 110.0
66.602466697 80.0
66.607390553 95.0
66.612314409 100.0
66.617238265 99.0
66.622162121 120.0
66.627085977 97.0
66.632009833 99.0
66.636933689 84.0
66.641857545 109.0
66.646781401 115.0
66.651705257 92.0
66.656629113 98.0
66.661552969 109.0
66.666476826 102.0
66.671400682 118.0
66.676324538 119.0
66.681248394 125.0
66.686172250 99.0
66.691096106 99.0
66.696019962 102.0
66.700943818 100.0
66.705867674 100.0
66.710791530 130.0
66.715715386 99.0
66.720639242 99.0
66.725563098 117.0
66.730486954 141.0
66.735410810 96.0
66.740334666 110.0
66.745258522 108.0
66.750182378 95.0
66.755106234 101.0
66.760030090 111.0
66.764953946 101.0
66.769877802 97.0
66.774801658 118.0
66.779725514 117.0
66.784649370 102.0
66.789573226 101.0
66.794497082 118.0
66.799420938 126.0
66.804344794 128.0
66.809268650 119.0
66.814192506 121.0
66.819116362 105.0
66.824040218 116.0
66.828964074 103.0
66.833887930 122.0
66.838811786 119.0
66.843735642 138.0
66.848659498 125.0
66.853583354 110.0
66.858507210 108.0
66.863431066 112.0
66.868354922 123.0
66.873278778 132.0
66.878202634 127.0
66.883126490 133.0
66.888050346 140.0
66.892974202 125.0
66.897898058 104.0
66.902821914 125.0
66.907745770 124.0
66.912669626 122.0
66.917593482 135.0
66.922517338 144.0
66.927441194 112.0
66.932365050 123.0
66.937288906 143.0
66.942212762 127.0
66.947136618 134.0
66.952060474 127.0
66.956984330 137.0
66.961908186 130.0
66.966832042 154.0
66.971755898 137.0
66.976679754 145.0
66.981603610 142.0
66.986527466 140.0
66.991451322 128.0
66.996375178 156.0
67.001299034 162.0
67.006222890 129.0
67.011146746 120.0
67.016070602 149.0
67.020994458 155.0
67.025918314 163.0
67.030842170 145.0
67.035766026 157.0
67.040689883 121.0
67.045613739 152.0
67.050537595 147.0
67.055461451 141.0
67.060385307 152.0
67.065309163 142.0
67.070233019 154.0
67.075156875 148.0
67.080080731 159.0
67.085004587 150.0
67.089928443 149.0
67.094852299 140.0
67.099776155 133.0
67.104700011 169.0
67.109623867 162.0
67.114547723 152.0
67.119471579 151.0
67.124395435 144.0
67.129319291 161.0
67.134243147 170.0
67.139167003 161.0
67.144090859 144.0
67.149014715 185.0
67.153938571 162.0
67.158862427 166.0
67.163786283 179.0
67.168710139 176.0
67.173633995 179.0
67.178557851 168.0
67.183481707 167.0
67.188405563 184.0
67.193329419 181.0
67.198253275 157.0
67.203177131 167.0
67.208100987 175.0
67.213024843 173.0
67.217948699 184.0
67.222872555 195.0
67.227796411 175.0
67.232720267 189.0
67.237644123 191.0
67.242567979 186.0
67.247491835 167.0
67.252415691 196.0
67.257339547 177.0
67.262263403 200.0
67.267187259 207.0
67.272111115 223.0
67.277034971 184.0
67.281958827 213.0
67.286882683 221.0
67.291806539 199.0
67.296730395 204.0
67.301654251 214.0
67.306578107 200.0
67.311501963 263.0
67.316425819 191.0
67.321349675 209.0
67.326273531 198.0
67.331197387 204.0
67.336121243 209.0
67.341045099 201.0
67.345968955 255.0
67.350892811 202.0
67.355816667 278.0
67.360740523 211.0
67.365664379 263.0
67.370588235 269.0
67.375512091 259.0
67.380435947 285.0
67.385359803 284.0
67.390283659 210.0
67.395207515 266.0
67.400131371 264.0
67.405055227 279.0
67.409979084 228.0
67.414902940 274.0
67.419826796 301.0
67.424750652 265.0
67.429674508 260.0
67.434598364 290.0
67.439522220 307.0
67.444446076 294.0
67.449369932 215.0
67.454293788 298.0
67.459217644 310.0
67.464141500 348.0
67.469065356 340.0
67.473989212 298.0
67.478913068 330.0
67.483836924 339.0
67.488760780 304.0
67.493684636 311.0
67.498608492 314.0
67.503532348 311.0
67.508456204 349.0
67.513380060 293.0
67.518303916 337.0
67.523227772 351.0
67.528151628 336.0
67.533075484 394.0
67.537999340 356.0
67.542923196 363.0
67.547847052 371.0
67.552770908 368.0
67.557694764 418.0
67.562618620 368.0
67.567542476 336.0
67.572466332 378.0
67.577390188 393.0
67.582314044 355.0
67.587237900 380.0
67.592161756 398.0
67.597085612 406.0
67.602009468 398.0
67.606933324 395.0
67.611857180 435.0
67.616781036 460.0
67.621704892 447.0
67.626628748 416.0
67.631552604 469.0
67.636476460 490.0
67.641400316 490.0
67.646324172 505.0
67.651248028 532.0
67.656171884 537.0
67.661095740 555.0
67.666019596 545.0
67.670943452 621.0
67.675867308 638.0
67.680791164 673.0
67.685715020 670.0
67.690638876 682.0
67.695562732 763.0
67.700486588 786.0
67.705410444 804.0
67.710334300 801.0
67.715258156 991.0
67.720182012 980.0
67.725105868 1034.0
67.730029724 1033.0
67.734953580 1076.0
67.739877436 1074.0
67.744801292 1179.0
67.749725148 1247.0
67.754649004 1274.0
67.759572860 1281.0
67.764496716 1337.0
67.769420572 1358.0
67.774344428 1497.0
67.779268285 1350.0
67.784192141 1386.0
67.789115997 1467.0
67.794039853 1504.0
67.798963709 1460.0
67.803887565 1462.0
67.808811421 1399.0
67.813735277 1429.0
67.818659133 1479.0
67.823582989 1498.0
67.828506845 1406.0
67.833430701 1380.0
67.838354557 1398.0
67.843278413 1385.0
67.848202269 1456.0
67.853126125 1377.0
67.858049981 1380.0
67.862973837 1397.0
67.867897693 1446.0
67.872821549 1440.0
67.877745405 1405.0
67.882669261 1418.0
67.887593117 1561.0
67.892516973 1517.0
67.897440829 1531.0
67.902364685 1605.0
67.907288541 1669.0
67.912212397 1680.0
67.917136253 1757.0
67.922060109 1769.0
67.926983965 1837.0
67.931907821 1899.0
67.936831677 2012.0
67.941755533 2077.0
67.946679389 2213.0
67.951603245 2283.0
67.956527101 2493.0
67.961450957 2624.0
67.966374813 2837.0
67.971298669 2933.0
67.976222525 3218.0
67.981146381 3397.0
67.986070237 3649.0
67.990994093 3884.0
67.995917949 4294.0
68.000841805 4615.0
68.005765661 4957.0
68.010689517 5588.0
68.015613373 6010.0
68.020537229 6885.0
68.025461085 7551.0
68.030384941 8694.0
68.035308797 9851.0
68.040232653 11254.0
68.045156509 13198.0
68.050080365 15710.0
68.055004221 18805.0
68.059928077 23222.0
68.064851933 30319.0
68.069775789 40423.0
68.074699645 55947.0
68.079623501 75790.0
68.084547357 96646.0
68.089471213 117001.0
68.094395069 131540.0
68.099318925 142776.0
68.104242781 148437.0
68.109166637 152245.0
68.114090493 151406.0
68.119014349 149002.0
68.123938205 139758.0
68.128862061 125185.0
68.133785917 104381.0
68.138709773 83754.0
68.143633629 64472.0
68.148557486 50502.0
68.153481342 39263.0
68.158405198 31501.0
68.163329054 25477.0
68.168252910 20689.0
68.173176766 17139.0
68.178100622 14519.0
68.183024478 12740.0
68.187948334 11015.0
68.192872190 10099.0
68.197796046 9105.0
68.202719902 8522.0
68.207643758 8247.0
68.212567614 7830.0
68.217491470 7943.0
68.222415326 7987.0
68.227339182 8292.0
68.232263038 8723.0
68.237186894 9690.0
68.242110750 10801.0
68.247034606 12625.0
68.251958462 14987.0
68.256882318 18159.0
68.261806174 23314.0
68.266730030 29984.0
68.271653886 38995.0
68.276577742 47382.0
68.281501598 56929.0
68.286425454 64698.0
68.291349310 70086.0
68.296273166 74312.0
68.301197022 77040.0
68.306120878 76127.0
68.311044734 74942.0
68.315968590 71050.0
68.320892446 64333.0
68.325816302 55714.0
68.330740158 46072.0
68.335664014 37805.0
68.340587870 29603.0
68.345511726 23824.0
68.350435582 18608.0
68.355359438 15035.0
68.360283294 12334.0
68.365207150 10225.0
68.370131006 8772.0
68.375054862 7297.0
68.379978718 6346.0
68.384902574 5513.0
68.389826430 4952.0
68.394750286 4296.0
68.399674142 4014.0
68.404597998 3771.0
68.409521854 3404.0
68.414445710 3036.0
68.419369566 3030.0
68.424293422 2836.0
68.429217278 2653.0
68.434141134 2440.0
68.439064990 2281.0
68.443988846 2146.0
68.448912702 2055.0
68.453836558 2025.0
68.458760414 1845.0
68.463684270 1879.0
68.468608126 1796.0
68.473531982 1738.0
68.478455838 1563.0
68.483379694 1529.0
68.488303550 1544.0
68.493227406 1478.0
68.498151262 1477.0
68.503075118 1414.0
68.507998974 1403.0
68.512922830 1307.0
68.517846687 1318.0
68.522770543 1237.0
68.527694399 1197.0
68.532618255 1114.0
68.537542111 1134.0
68.542465967 1162.0
68.547389823 1102.0
68.552313679 1055.0
68.557237535 1046.0
68.562161391 1001.0
68.567085247 999.0
68.572009103 945.0
68.576932959 899.0
68.581856815 930.0
68.586780671 862.0
68.591704527 884.0
68.596628383 852.0
68.601552239 826.0
68.606476095 790.0
68.611399951 803.0
68.616323807 811.0
68.621247663 755.0
68.626171519 708.0
68.631095375 769.0
68.636019231 703.0
68.640943087 691.0
68.645866943 680.0
68.650790799 672.0
68.655714655 667.0
68.660638511 669.0
68.665562367 646.0
68.670486223 617.0
68.675410079 619.0
68.680333935 597.0
68.685257791 589.0
68.690181647 618.0
68.695105503 591.0
68.700029359 611.0
68.704953215 597.0
68.709877071 622.0
68.714800927 578.0
68.719724783 559.0
68.724648639 532.0
68.729572495 534.0
68.734496351 574.0
68.739420207 527.0
68.744344063 486.0
68.749267919 509.0
68.754191775 500.0
68.759115631 499.0
68.764039487 464.0
68.768963343 441.0
68.773887199 503.0
68.778811055 460.0
68.783734911 482.0
68.788658767 459.0
68.793582623 461.0
68.798506479 454.0
68.803430335 405.0
68.808354191 425.0
68.813278047 423.0
68.818201903 377.0
68.823125759 397.0
68.828049615 434.0
68.832973471 415.0
68.837897327 384.0
68.842821183 393.0
68.847745039 396.0
68.852668895 380.0
68.857592751 344.0
68.862516607 387.0
68.867440463 334.0
68.872364319 377.0
68.877288175 340.0
68.882212031 362.0
68.887135887 352.0
68.892059744 323.0
68.896983600 369.0
68.901907456 353.0
68.906831312 351.0
68.911755168 353.0
68.916679024 348.0
68.921602880 347.0
68.926526736 345.0
68.931450592 341.0
68.936374448 335.0
68.941298304 307.0
68.946222160 287.0
68.951146016 298.0
68.956069872 299.0
68.960993728 310.0
68.965917584 337.0
68.970841440 324.0
68.975765296 287.0
68.980689152 300.0
68.985613008 327.0
68.990536864 306.0
68.995460720 317.0
69.000384576 327.0
69.005308432 265.0
69.010232288 264.0
69.015156144 281.0
69.020080000 299.0
69.025003856 308.0
69.029927712 279.0
69.034851568 295.0
69.039775424 297.0
69.044699280 213.0
69.049623136 256.0
69.054546992 220.0
69.059470848 283.0
69.064394704 211.0
69.069318560 265.0
69.074242416 269.0
69.079166272 203.0
69.084090128 222.0
69.089013984 212.0
69.093937840 257.0
69.098861696 256.0
69.103785552 204.0
69.108709408 263.0
69.113633264 215.0
69.118557120 207.0
69.123480976 193.0
69.128404832 176.0
69.133328688 205.0
69.138252544 202.0
69.143176400 196.0
69.148100256 219.0
69.153024112 199.0
69.157947968 200.0
69.162871824 185.0
69.167795680 180.0
69.172719536 169.0
69.177643392 200.0
69.182567248 182.0
69.187491104 168.0
69.192414960 183.0
69.197338816 175.0
69.202262672 199.0
69.207186528 176.0
69.212110384 196.0
69.217034240 200.0
69.221958096 171.0
69.226881952 171.0
69.231805808 205.0
69.236729664 167.0
69.241653520 175.0
69.246577376 181.0
69.251501232 174.0
69.256425088 167.0
69.261348945 183.0
69.266272801 190.0
69.271196657 144.0
69.276120513 159.0
69.281044369 161.0
69.285968225 142.0
69.290892081 183.0
69.295815937 163.0
69.300739793 163.0
69.305663649 145.0
69.310587505 162.0
69.315511361 154.0
69.320435217 147.0
69.325359073 149.0
69.330282929 141.0
69.335206785 151.0
69.340130641 170.0
69.345054497 158.0
69.349978353 141.0
69.354902209 131.0
69.359826065 156.0
69.364749921 149.0
69.369673777 152.0
69.374597633 134.0
69.379521489 130.0
69.384445345 130.0
69.389369201 159.0
69.394293057 121.0
69.399216913 138.0
69.404140769 121.0
69.409064625 128.0
69.413988481 136.0
69.418912337 144.0
69.423836193 132.0
69.428760049 127.0
69.433683905 148.0
69.438607761 154.0
69.443531617 125.0
69.448455473 117.0
69.453379329 114.0
69.458303185 132.0
69.463227041 133.0
69.468150897 126.0
69.473074753 129.0
69.477998609 107.0
69.482922465 104.0
69.487846321 136.0
69.492770177 108.0
69.497694033 138.0
69.502617889 137.0
69.507541745 106.0
69.512465601 126.0
69.517389457 108.0
69.522313313 112.0
69.527237169 100.0
69.532161025 110.0
69.537084881 115.0
69.542008737 121.0
69.546932593 114.0
69.551856449 110.0
69.556780305 118.0
69.561704161 104.0
69.566628017 105.0
69.571551873 93.0
69.576475729 105.0
69.581399585 105.0
69.586323441 113.0
69.591247297 116.0
69.596171153 118.0
69.601095009 111.0
69.606018865 101.0
69.610942721 101.0
69.615866577 95.0
69.620790433 105.0
69.625714289 98.0
69.630638146 93.0
69.635562002 106.0
69.640485858 103.0
69.645409714 112.0
69.650333570 107.0
69.655257426 95.0
69.660181282 80.0
69.665105138 98.0
69.670028994 102.0
69.674952850 95.0
69.679876706 104.0
69.684800562 100.0
69.689724418 93.0
69.694648274 83.0
69.699572130 86.0
69.704495986 90.0
69.709419842 89.0
69.714343698 91.0
69.719267554 92.0
69.724191410 78.0
69.729115266 106.0
69.734039122 96.0
69.738962978 82.0
69.743886834 80.0
69.748810690 85.0
69.753734546 87.0
69.758658402 71.0
69.763582258 87.0
69.768506114 90.0
69.773429970 81.0
69.778353826 84.0
69.783277682 79.0
69.788201538 81.0
69.793125394 96.0
69.798049250 75.0
69.802973106 73.0
69.807896962 92.0
69.812820818 71.0
69.817744674 78.0
69.822668530 75.0
69.827592386 85.0
69.832516242 96.0
69.837440098 79.0
69.842363954 67.0
69.847287810 74.0
69.852211666 70.0
69.857135522 76.0
69.862059378 82.0
69.866983234 63.0
69.871907090 74.0
69.876830946 67.0
69.881754802 80.0
69.886678658 81.0
69.891602514 69.0
69.896526370 60.0
69.901450226 62.0
69.906374082 95.0
69.911297938 63.0
69.916221794 68.0
69.921145650 66.0
69.926069506 63.0
69.930993362 77.0
69.935917218 69.0
69.940841074 75.0
69.945764930 65.0
69.950688786 61.0
69.955612642 58.0
69.960536498 44.0
69.965460354 51.0
69.970384210 77.0
69.975308066 60.0
69.980231922 67.0
69.985155778 73.0
69.990079634 63.0
69.995003490 54.0
69.999927347 57.0
70.004851203 54.0
70.009775059 57.0
70.014698915 74.0
70.019622771 65.0
70.024546627 71.0
70.029470483 54.0
70.034394339 61.0
70.039318195 64.0
70.044242051 70.0
70.049165907 43.0
70.054089763 54.0
70.059013619 64.0
70.063937475 65.0
70.068861331 46.0
70.073785187 63.0
70.078709043 68.0
70.083632899 54.0
70.088556755 62.0
70.093480611 56.0
70.098404467 46.0
70.103328323 49.0
70.108252179 54.0
70.113176035 47.0
70.118099891 64.0
70.123023747 51.0
70.127947603 58.0
70.132871459 53.0
70.137795315 42.0
70.142719171 41.0
70.147643027 60.0
70.152566883 50.0
70.157490739 40.0
70.162414595 55.0
70.167338451 44.0
70.172262307 40.0
70.177186163 66.0
70.182110019 50.0
70.187033875 43.0
70.191957731 59.0
70.196881587 56.0
70.201805443 62.0
70.206729299 49.0
70.211653155 44.0
70.216577011 49.0
70.221500867 44.0
70.226424723 50.0
70.231348579 46.0
70.236272435 35.0
70.241196291 81.0
70.246120147 52.0
70.251044003 40.0
70.255967859 51.0
70.260891715 47.0
70.265815571 53.0
70.270739427 37.0
70.275663283 47.0
70.280587139 53.0
70.285510995 43.0
70.290434851 51.0
70.295358707 44.0
70.300282563 43.0
70.305206419 38.0
70.310130275 48.0
70.315054131 42.0
70.319977987 53.0
70.324901843 41.0
70.329825699 49.0
70.334749555 40.0
70.339673411 43.0
70.344597267 47.0
70.349521123 36.0
70.354444979 32.0
70.359368835 26.0
70.364292691 41.0
70.369216548 46.0
70.374140404 42.0
70.379064260 33.0
70.383988116 36.0
70.388911972 51.0
70.393835828 38.0
70.398759684 41.0
70.403683540 49.0
70.408607396 49.0
70.413531252 41.0
70.418455108 45.0
70.423378964 45.0
70.428302820 34.0
70.433226676 32.0
70.438150532 49.0
70.443074388 42.0
70.447998244 35.0
70.452922100 31.0
70.457845956 32.0
70.462769812 36.0
70.467693668 33.0
70.472617524 29.0
70.477541380 32.0
70.482465236 30.0
70.487389092 45.0
70.492312948 47.0
70.497236804 41.0
70.502160660 40.0
70.507084516 35.0
70.512008372 39.0
70.516932228 36.0
70.521856084 33.0
70.526779940 29.0
70.531703796 33.0
70.536627652 38.0
70.541551508 36.0
70.546475364 38.0
70.551399220 27.0
70.556323076 31.0
70.561246932 33.0
70.566170788 36.0
70.571094644 33.0
70.576018500 41.0
70.580942356 31.0
70.585866212 30.0
70.590790068 33.0
70.595713924 36.0
70.600637780 42.0
70.605561636 29.0
70.610485492 24.0
70.615409348 26.0
70.620333204 34.0
70.625257060 37.0
70.630180916 35.0
70.635104772 28.0
70.640028628 39.0
70.644952484 38.0
70.649876340 36.0
70.654800196 29.0
70.659724052 31.0
70.664647908 29.0
70.669571764 31.0
70.674495620 29.0
70.679419476 27.0
70.684343332 23.0
70.689267188 33.0
70.694191044 26.0
70.699114900 37.0
70.704038756 35.0
70.708962612 30.0
70.713886468 46.0
70.718810324 34.0
70.723734180 28.0
70.728658036 29.0
70.733581892 22.0
70.738505748 35.0
70.743429605 31.0
70.748353461 29.0
70.753277317 30.0
70.758201173 20.0
70.763125029 26.0
70.768048885 29.0
70.772972741 35.0
70.777896597 32.0
70.782820453 36.0
70.787744309 38.0
70.792668165 32.0
70.797592021 31.0
70.802515877 32.0
70.807439733 27.0
70.812363589 27.0
70.817287445 35.0
70.822211301 24.0
70.827135157 34.0
70.832059013 27.0
70.836982869 37.0
70.841906725 28.0
70.846830581 39.0
70.851754437 30.0
70.856678293 23.0
70.861602149 35.0
70.866526005 25.0
70.871449861 33.0
70.876373717 26.0
70.881297573 20.0
70.886221429 28.0
70.891145285 35.0
70.896069141 16.0
70.900992997 32.0
70.905916853 29.0
70.910840709 29.0
70.915764565 18.0
70.920688421 26.0
70.925612277 32.0
70.930536133 20.0
70.935459989 28.0
70.940383845 29.0
70.945307701 22.0
70.950231557 29.0
70.955155413 25.0
70.960079269 34.0
70.965003125 31.0
70.969926981 37.0
70.974850837 29.0
70.979774693 28.0
70.984698549 19.0
70.989622405 32.0
70.994546261 22.0
70.999470117 14.0
71.004393973 24.0
71.009317829 27.0
71.014241685 33.0
71.019165541 27.0
71.024089397 28.0
71.029013253 22.0
71.033937109 22.0
71.038860965 26.0
71.043784821 24.0
71.048708677 30.0
71.053632533 39.0
71.058556389 39.0
71.063480245 21.0
71.068404101 24.0
71.073327957 23.0
71.078251813 26.0
71.083175669 35.0
71.088099525 36.0
71.093023381 17.0
71.097947237 31.0
71.102871093 26.0
71.107794949 32.0
71.112718806 27.0
71.117642662 28.0
71.122566518 34.0
71.127490374 19.0
71.132414230 24.0
71.137338086 24.0
71.142261942 25.0
71.147185798 22.0
71.152109654 23.0
71.157033510 31.0
71.161957366 37.0
71.166881222 25.0
71.171805078 20.0
71.176728934 27.0
71.181652790 28.0
71.186576646 24.0
71.191500502 24.0
71.196424358 24.0
71.201348214 22.0
71.206272070 26.0
71.211195926 20.0
71.216119782 29.0
71.221043638 26.0
71.225967494 23.0
71.230891350 32.0
71.235815206 35.0
71.240739062 23.0
71.245662918 27.0
71.250586774 24.0
71.255510630 36.0
71.260434486 30.0
71.265358342 27.0
71.270282198 21.0
71.275206054 27.0
71.280129910 26.0
71.285053766 20.0
71.289977622 29.0
71.294901478 24.0
71.299825334 28.0
71.304749190 33.0
71.309673046 21.0
71.314596902 24.0
71.319520758 24.0
71.324444614 21.0
71.329368470 21.0
71.334292326 22.0
71.339216182 25.0
71.344140038 28.0
71.349063894 22.0
71.353987750 23.0
71.358911606 17.0
71.363835462 32.0
71.368759318 20.0
71.373683174 22.0
71.378607030 23.0
71.383530886 32.0
71.388454742 24.0
71.393378598 24.0
71.398302454 18.0
71.403226310 24.0
71.408150166 12.0
71.413074022 27.0
71.417997878 27.0
71.422921734 20.0
71.427845590 26.0
71.432769446 22.0
71.437693302 17.0
71.442617158 23.0
71.447541014 25.0
71.452464870 36.0
71.457388726 18.0
71.462312582 16.0
71.467236438 25.0
71.472160294 25.0
71.477084150 29.0
71.482008007 23.0
71.486931863 21.0
71.491855719 23.0
71.496779575 18.0
71.501703431 22.0
71.506627287 22.0
71.511551143 30.0
71.516474999 23.0
71.521398855 16.0
71.526322711 20.0
71.531246567 21.0
71.536170423 24.0
71.541094279 27.0
71.546018135 22.0
71.550941991 18.0
71.555865847 24.0
71.560789703 19.0
71.565713559 28.0
71.570637415 28.0
71.575561271 21.0
71.580485127 17.0
71.585408983 24.0
71.590332839 18.0
71.595256695 21.0
71.600180551 24.0
71.605104407 22.0
71.610028263 20.0
71.614952119 27.0
71.619875975 28.0
71.624799831 22.0
71.629723687 14.0
71.634647543 24.0
71.639571399 21.0
71.644495255 16.0
71.649419111 27.0
71.654342967 27.0
71.659266823 17.0
71.664190679 26.0
71.669114535 23.0
71.674038391 24.0
71.678962247 29.0
71.683886103 17.0
71.688809959 16.0
71.693733815 20.0
71.698657671 23.0
71.703581527 21.0
71.708505383 20.0
71.713429239 20.0
71.718353095 17.0
71.723276951 17.0
71.728200807 21.0
71.733124663 19.0
71.738048519 24.0
71.742972375 16.0
71.747896231 28.0
71.752820087 15.0
71.757743943 21.0
71.762667799 24.0
71.767591655 19.0
71.772515511 14.0
71.777439367 23.0
71.782363223 16.0
71.787287079 21.0
71.792210935 13.0
71.797134791 18.0
71.802058647 16.0
71.806982503 20.0
71.811906359 27.0
71.816830215 20.0
71.821754071 17.0
71.826677927 19.0
71.831601783 18.0
71.836525639 31.0
71.841449495 17.0
71.846373351 22.0
71.851297208 24.0
71.856221064 17.0
71.861144920 16.0
71.866068776 18.0
71.870992632 13.0
71.875916488 26.0
71.880840344 34.0
71.885764200 25.0
71.890688056 17.0
71.895611912 22.0
71.900535768 17.0
71.905459624 20.0
71.910383480 24.0
71.915307336 18.0
71.920231192 14.0
71.925155048 19.0
71.930078904 23.0
71.935002760 31.0
71.939926616 16.0
71.944850472 20.0
71.949774328 28.0
71.954698184 20.0
71.959622040 13.0
71.964545896 22.0
71.969469752 22.0
71.974393608 20.0
71.979317464 22.0
71.984241320 18.0
71.989165176 26.0
71.994089032 23.0
71.999012888 14.0
72.003936744 11.0
72.008860600 16.0
72.013784456 23.0
72.018708312 24.0
72.023632168 17.0
72.028556024 26.0
72.033479880 22.0
72.038403736 17.0
72.043327592 17.0
72.048251448 18.0
72.053175304 17.0
72.058099160 24.0
72.063023016 16.0
72.067946872 22.0
72.072870728 16.0
72.077794584 22.0
72.082718440 20.0
72.087642296 15.0
72.092566152 24.0
72.097490008 18.0
72.102413864 16.0
72.107337720 18.0
72.112261576 10.0
72.117185432 22.0
72.122109288 15.0
72.127033144 20.0
72.131957000 25.0
72.136880856 20.0
72.141804712 20.0
72.146728568 21.0
72.151652424 27.0
72.156576280 16.0
72.161500136 12.0
72.166423992 21.0
72.171347848 17.0
72.176271704 18.0
72.181195560 21.0
72.186119416 18.0
72.191043272 20.0
72.195967128 17.0
72.200890984 25.0
72.205814840 23.0
72.210738696 13.0
72.215662552 19.0
72.220586409 20.0
72.225510265 18.0
72.230434121 23.0
72.235357977 21.0
72.240281833 22.0
72.245205689 23.0
72.250129545 19.0
72.255053401 22.0
72.259977257 18.0
72.264901113 23.0
72.269824969 24.0
72.274748825 21.0
72.279672681 14.0
72.284596537 22.0
72.289520393 20.0
72.294444249 18.0
72.299368105 22.0
72.304291961 23.0
72.309215817 23.0
72.314139673 17.0
72.319063529 13.0
72.323987385 16.0
72.328911241 20.0
72.333835097 24.0
72.338758953 17.0
72.343682809 23.0
72.348606665 10.0
72.353530521 21.0
72.358454377 15.0
72.363378233 12.0
72.368302089 26.0
72.373225945 20.0
72.378149801 19.0
72.383073657 15.0
72.387997513 19.0
72.392921369 19.0
72.397845225 22.0
72.402769081 23.0
72.407692937 20.0
72.412616793 13.0
72.417540649 13.0
72.422464505 22.0
72.427388361 18.0
72.432312217 13.0
72.437236073 15.0
72.442159929 19.0
72.447083785 15.0
72.452007641 9.0
72.456931497 14.0
72.461855353 13.0
72.466779209 14.0
72.471703065 20.0
72.476626921 19.0
72.481550777 15.0
72.486474633 11.0
72.491398489 13.0
72.496322345 22.0
72.501246201 18.0
72.506170057 29.0
72.511093913 15.0
72.516017769 11.0
72.520941625 10.0
72.525865481 22.0
72.530789337 16.0
72.535713193 17.0
72.540637049 15.0
72.545560905 14.0
72.550484761 13.0
72.555408617 16.0
72.560332473 14.0
72.565256329 18.0
72.570180185 15.0
72.575104041 14.0
72.580027897 16.0
72.584951753 21.0
72.589875609 19.0
72.594799466 8.0
72.599723322 23.0
72.604647178 9.0
72.609571034 18.0
72.614494890 17.0
72.619418746 20.0
72.624342602 15.0
72.629266458 14.0
72.634190314 18.0
72.639114170 15.0
72.644038026 15.0
72.648961882 15.0
72.653885738 24.0
72.658809594 19.0
72.663733450 20.0
72.668657306 17.0
72.673581162 20.0
72.678505018 16.0
72.683428874 14.0
72.688352730 13.0
72.693276586 13.0
72.698200442 16.0
72.703124298 20.0
72.708048154 17.0
72.712972010 19.0
72.717895866 17.0
72.722819722 18.0
72.727743578 16.0
72.732667434 22.0
72.737591290 25.0
72.742515146 16.0
72.747439002 19.0
72.752362858 18.0
72.757286714 20.0
72.762210570 12.0
72.767134426 17.0
72.772058282 15.0
72.776982138 8.0
72.781905994 18.0
72.786829850 18.0
72.791753706 15.0
72.796677562 20.0
72.801601418 15.0
72.806525274 23.0
72.811449130 12.0
72.816372986 16.0
72.821296842 15.0
72.826220698 20.0
72.831144554 15.0
72.836068410 16.0
72.840992266 24.0
72.845916122 14.0
72.850839978 17.0
72.855763834 21.0
72.860687690 13.0
72.865611546 17.0
72.870535402 15.0
72.875459258 19.0
72.880383114 13.0
72.885306970 19.0
72.890230826 27.0
72.895154682 19.0
72.900078538 21.0
72.905002394 22.0
72.909926250 16.0
72.914850106 18.0
72.919773962 12.0
72.924697818 18.0
72.929621674 14.0
72.934545530 22.0
72.939469386 17.0
72.944393242 17.0
72.949317098 19.0
72.954240954 8.0
72.959164810 19.0
72.964088667 10.0
72.969012523 16.0
72.973936379 16.0
72.978860235 23.0
72.983784091 17.0
72.988707947 24.0
72.993631803 22.0
72.998555659 15.0
73.003479515 20.0
73.008403371 16.0
73.013327227 22.0
73.018251083 18.0
73.023174939 13.0
73.028098795 23.0
73.033022651 15.0
73.037946507 14.0
73.042870363 15.0
73.047794219 17.0
73.052718075 15.0
73.057641931 19.0
73.062565787 12.0
73.067489643 19.0
73.072413499 19.0
73.077337355 20.0
73.082261211 14.0
73.087185067 18.0
73.092108923 15.0
73.097032779 13.0
73.101956635 20.0
73.106880491 17.0
73.111804347 12.0
73.116728203 11.0
73.121652059 20.0
73.126575915 14.0
73.131499771 16.0
73.136423627 19.0
73.141347483 23.0
73.146271339 19.0
73.151195195 10.0
73.156119051 18.0
73.161042907 17.0
73.165966763 19.0
73.170890619 22.0
73.175814475 11.0
73.180738331 17.0
73.185662187 9.0
73.190586043 23.0
73.195509899 22.0
73.200433755 12.0
73.205357611 8.0
73.210281467 19.0
73.215205323 19.0
73.220129179 25.0
73.225053035 18.0
73.229976891 13.0
73.234900747 21.0
73.239824603 19.0
73.244748459 12.0
73.249672315 10.0
73.254596171 13.0
73.259520027 13.0
73.264443883 12.0
73.269367739 6.0
73.274291595 20.0
73.279215451 15.0
73.284139307 22.0
73.289063163 15.0
73.293987019 16.0
73.298910875 14.0
73.303834731 24.0
73.308758587 15.0
73.313682443 19.0
73.318606299 14.0
73.323530155 13.0
73.328454011 17.0
73.333377868 22.0
73.338301724 11.0
73.343225580 19.0
73.348149436 15.0
73.353073292 11.0
73.357997148 23.0
73.362921004 22.0
73.367844860 12.0
73.372768716 17.0
73.377692572 13.0
73.382616428 12.0
73.387540284 16.0
73.392464140 8.0
73.397387996 17.0
73.402311852 16.0
73.407235708 15.0
73.412159564 16.0
73.417083420 15.0
73.422007276 17.0
73.426931132 12.0
73.431854988 17.0
73.436778844 17.0
73.441702700 18.0
73.446626556 14.0
73.451550412 18.0
73.456474268 15.0
73.461398124 15.0
73.466321980 16.0
73.471245836 17.0
73.476169692 20.0
73.481093548 19.0
73.486017404 15.0
73.490941260 15.0
73.495865116 10.0
73.500788972 16.0
73.505712828 13.0
73.510636684 13.0
73.515560540 17.0
73.520484396 13.0
73.525408252 11.0
73.530332108 13.0
73.535255964 17.0
73.540179820 15.0
73.545103676 17.0
73.550027532 19.0
73.554951388 15.0
73.559875244 13.0
73.564799100 11.0
73.569722956 12.0
73.574646812 16.0
73.579570668 20.0
73.584494524 13.0
73.589418380 7.0
73.594342236 17.0
73.599266092 5.0
73.604189948 17.0
73.609113804 17.0
73.614037660 15.0
73.618961516 14.0
73.623885372 13.0
73.628809228 13.0
73.633733084 17.0
73.638656940 26.0
73.643580796 12.0
73.648504652 14.0
73.653428508 14.0
73.658352364 14.0
73.663276220 21.0
73.668200076 17.0
73.673123932 18.0
73.678047788 19.0
73.682971644 21.0
73.687895500 14.0
73.692819356 18.0
73.697743212 13.0
73.702667069 13.0
73.707590925 11.0
73.712514781 17.0
73.717438637 17.0
73.722362493 9.0
73.727286349 18.0
73.732210205 14.0
73.737134061 18.0
73.742057917 19.0
73.746981773 21.0
73.751905629 18.0
73.756829485 17.0
73.761753341 11.0
73.766677197 13.0
73.771601053 13.0
73.776524909 15.0
73.781448765 16.0
73.786372621 13.0
73.791296477 12.0
73.796220333 13.0
73.801144189 8.0
73.806068045 19.0
73.810991901 9.0
73.815915757 17.0
73.820839613 20.0
73.825763469 12.0
73.830687325 24.0
73.835611181 17.0
73.840535037 10.0
73.845458893 15.0
73.850382749 11.0
73.855306605 20.0
73.860230461 12.0
73.865154317 18.0
73.870078173 10.0
73.875002029 8.0
73.879925885 18.0
73.884849741 25.0
73.889773597 11.0
73.894697453 16.0
73.899621309 11.0
73.904545165 15.0
73.909469021 14.0
73.914392877 11.0
73.919316733 10.0
73.924240589 20.0
73.929164445 18.0
73.934088301 17.0
73.939012157 17.0
73.943936013 12.0
73.948859869 11.0
73.953783725 13.0
73.958707581 16.0
73.963631437 7.0
73.968555293 19.0
73.973479149 17.0
73.978403005 20.0
73.983326861 14.0
73.988250717 18.0
73.993174573 11.0
73.998098429 14.0
74.003022285 10.0
74.007946141 12.0
74.012869997 20.0
74.017793853 11.0
74.022717709 16.0
74.027641565 13.0
74.032565421 7.0
74.037489277 14.0
74.042413133 28.0
74.047336989 18.0
74.052260845 10.0
74.057184701 17.0
74.062108557 13.0
74.067032413 15.0
74.071956270 14.0
74.076880126 22.0
74.081803982 14.0
74.086727838 16.0
74.091651694 9.0
74.096575550 18.0
74.101499406 17.0
74.106423262 14.0
74.111347118 10.0
74.116270974 15.0
74.121194830 13.0
74.126118686 16.0
74.131042542 14.0
74.135966398 13.0
74.140890254 12.0
74.145814110 15.0
74.150737966 14.0
74.155661822 15.0
74.160585678 16.0
74.165509534 21.0
74.170433390 13.0
74.175357246 19.0
74.180281102 12.0
74.185204958 12.0
74.190128814 16.0
74.195052670 12.0
74.199976526 12.0
74.204900382 8.0
74.209824238 14.0
74.214748094 14.0
74.219671950 14.0
74.224595806 15.0
74.229519662 13.0
74.234443518 12.0
74.239367374 19.0
74.244291230 18.0
74.249215086 14.0
74.254138942 8.0
74.259062798 17.0
74.263986654 15.0
74.268910510 20.0
74.273834366 15.0
74.278758222 16.0
74.283682078 12.0
74.288605934 17.0
74.293529790 13.0
74.298453646 12.0
74.303377502 18.0
74.308301358 29.0
74.313225214 11.0
74.318149070 15.0
74.323072926 20.0
74.327996782 11.0
74.332920638 12.0
74.337844494 17.0
74.342768350 19.0
74.347692206 10.0
74.352616062 11.0
74.357539918 20.0
74.362463774 17.0
74.367387630 15.0
74.372311486 11.0
74.377235342 19.0
74.382159198 19.0
74.387083054 19.0
74.392006910 10.0
74.396930766 18.0
74.401854622 19.0
74.406778478 9.0
74.411702334 9.0
74.416626190 11.0
74.421550046 20.0
74.426473902 14.0
74.431397758 13.0
74.436321614 11.0
74.441245470 8.0
74.446169327 17.0
74.451093183 20.0
74.456017039 12.0
74.460940895 19.0
74.465864751 15.0
74.470788607 12.0
74.475712463 20.0
74.480636319 12.0
74.485560175 12.0
74.490484031 18.0
74.495407887 19.0
74.500331743 12.0
74.505255599 18.0
74.510179455 12.0
74.515103311 3.0
74.520027167 15.0
74.524951023 18.0
74.529874879 10.0
74.534798735 14.0
74.539722591 9.0
74.544646447 19.0
74.549570303 21.0
74.554494159 15.0
74.559418015 17.0
74.564341871 8.0
74.569265727 22.0
74.574189583 10.0
74.579113439 11.0
74.584037295 19.0
74.588961151 10.0
74.593885007 11.0
74.598808863 14.0
74.603732719 15.0
74.608656575 24.0
74.613580431 10.0
74.618504287 14.0
74.623428143 15.0
74.628351999 4.0
74.633275855 15.0
74.638199711 15.0
74.643123567 8.0
74.648047423 15.0
74.652971279 12.0
74.657895135 14.0
74.662818991 10.0
74.667742847 12.0
74.672666703 9.0
74.677590559 22.0
74.682514415 14.0
74.687438271 16.0
74.692362127 17.0
74.697285983 6.0
74.702209839 10.0
74.707133695 13.0
74.712057551 10.0
74.716981407 19.0
74.721905263 17.0
74.726829119 15.0
74.731752975 11.0
74.736676831 14.0
74.741600687 19.0
74.746524543 10.0
74.751448399 15.0
74.756372255 14.0
74.761296111 14.0
74.766219967 16.0
74.771143823 13.0
74.776067679 13.0
74.780991535 17.0
74.785915391 21.0
74.790839247 17.0
74.795763103 10.0
74.800686959 26.0
74.805610815 14.0
74.810534671 11.0
74.815458528 9.0
74.820382384 13.0
74.825306240 10.0
74.830230096 14.0
74.835153952 13.0
74.840077808 19.0
74.845001664 13.0
74.849925520 17.0
74.854849376 14.0
74.859773232 19.0
74.864697088 15.0
74.869620944 13.0
74.874544800 14.0
74.879468656 10.0
74.884392512 20.0
74.889316368 22.0
74.894240224 9.0
74.899164080 17.0
74.904087936 8.0
74.909011792 22.0
74.913935648 11.0
74.918859504 18.0
74.923783360 13.0
74.928707216 14.0
74.933631072 9.0
74.938554928 17.0
74.943478784 12.0
74.948402640 9.0
74.953326496 13.0
74.958250352 14.0
74.963174208 10.0
74.968098064 10.0
74.973021920 14.0
74.977945776 15.0
74.982869632 12.0
74.987793488 8.0
74.992717344 14.0
74.997641200 17.0
