55.001861930 14.0
55.006785786 10.0
55.011709642 16.0
55.016633498 10.0
55.021557354 13.0
55.026481210 27.0
55.031405066 16.0
55.036328922 16.0
55.041252778 5.0
55.046176634 21.0
55.051100490 18.0
55.056024346 19.0
55.060948202 8.0
55.065872058 14.0
55.070795914 15.0
55.075719770 10.0
55.080643626 8.0
55.085567482 7.0
55.090491338 12.0
55.095415194 10.0
55.100339050 13.0
55.105262906 16.0
55.110186762 10.0
55.115110618 15.0
55.120034474 17.0
55.124958330 7.0
55.129882186 13.0
55.134806042 13.0
55.139729898 7.0
55.144653754 13.0
55.149577610 19.0
55.154501466 13.0
55.159425322 14.0
55.164349178 14.0
55.169273034 16.0
55.174196890 12.0
55.179120746 19.0
55.184044602 12.0
55.188968459 16.0
55.193892315 11.0
55.198816171 11.0
55.203740027 17.0
55.208663883 15.0
55.213587739 7.0
55.218511595 15.0
55.223435451 10.0
55.228359307 14.0
55.233283163 15.0
55.238207019 12.0
55.243130875 13.0
55.248054731 11.0
55.252978587 14.0
55.257902443 12.0
55.262826299 9.0
55.267750155 11.0
55.272674011 14.0
55.277597867 12.0
55.282521723 13.0
55.287445579 12.0
55.292369435 17.0
55.297293291 13.0
55.302217147 11.0
55.307141003 13.0
55.312064859 22.0
55.316988715 16.0
55.321912571 15.0
55.326836427 8.0
55.331760283 11.0
55.336684139 14.0
55.341607995 12.0
55.346531851 12.0
55.351455707 13.0
55.356379563 23.0
55.361303419 15.0
55.366227275 14.0
55.371151131 8.0
55.376074987 12.0
55.380998843 13.0
55.385922699 10.0
55.390846555 10.0
55.395770411 18.0
55.400694267 12.0
55.405618123 24.0
55.410541979 11.0
55.415465835 13.0
55.420389691 11.0
55.425313547 17.0
55.430237403 16.0
55.435161259 16.0
55.440085115 16.0
55.445008971 18.0
55.449932827 11.0
55.454856683 12.0
55.459780539 10.0
55.464704395 14.0
55.469628251 10.0
55.474552107 12.0
55.479475963 11.0
55.484399819 11.0
55.489323675 15.0
55.494247531 8.0
55.499171387 13.0
55.504095243 12.0
55.509019099 13.0
55.513942955 11.0
55.518866811 15.0
55.523790667 9.0
55.528714523 17.0
55.533638379 13.0
55.538562235 16.0
55.543486091 9.0
55.548409947 20.0
55.553333803 20.0
55.558257660 16.0
55.563181516 14.0
55.568105372 16.0
55.573029228 12.0
55.577953084 12.0
55.582876940 8.0
55.587800796 14.0
55.592724652 22.0
55.597648508 17.0
55.602572364 10.0
55.607496220 14.0
55.612420076 17.0
55.617343932 17.0
55.622267788 14.0
55.627191644 12.0
55.632115500 19.0
55.637039356 17.0
55.641963212 11.0
55.646887068 18.0
55.651810924 11.0
55.656734780 10.0
55.661658636 7.0
55.666582492 12.0
55.671506348 9.0
55.676430204 12.0
55.681354060 19.0
55.686277916 13.0
55.691201772 10.0
55.696125628 12.0
55.701049484 10.0
55.705973340 14.0
55.710897196 16.0
55.715821052 20.0
55.720744908 15.0
55.725668764 12.0
55.730592620 9.0
55.735516476 13.0
55.740440332 11.0
55.745364188 13.0
55.750288044 17.0
55.755211900 16.0
55.760135756 19.0
55.765059612 17.0
55.769983468 14.0
55.774907324 11.0
55.779831180 10.0
55.784755036 13.0
55.789678892 13.0
55.794602748 9.0
55.799526604 17.0
55.804450460 12.0
55.809374316 11.0
55.814298172 11.0
55.819222028 11.0
55.824145884 15.0
55.829069740 9.0
55.833993596 12.0
55.838917452 18.0
55.843841308 16.0
55.848765164 18.0
55.853689020 25.0
55.858612876 14.0
55.863536732 13.0
55.868460588 20.0
55.873384444 10.0
55.878308300 13.0
55.883232156 19.0
55.888156012 9.0
55.893079868 17.0
55.898003724 20.0
55.902927580 15.0
55.907851436 14.0
55.912775292 7.0
55.917699148 12.0
55.922623004 14.0
55.927546860 11.0
55.932470717 17.0
55.937394573 11.0
55.942318429 15.0
55.947242285 17.0
55.952166141 15.0
55.957089997 8.0
55.962013853 17.0
55.966937709 8.0
55.971861565 9.0
55.976785421 8.0
55.981709277 15.0
55.986633133 4.0
55.991556989 14.0
55.996480845 14.0
56.001404701 16.0
56.006328557 9.0
56.011252413 13.0
56.016176269 13.0
56.021100125 18.0
56.026023981 16.0
56.030947837 14.0
56.035871693 12.0
56.040795549 10.0
56.045719405 13.0
56.050643261 18.0
56.055567117 5.0
56.060490973 11.0
56.065414829 18.0
56.070338685 14.0
56.075262541 8.0
56.080186397 10.0
56.085110253 11.0
56.090034109 10.0
56.094957965 10.0
56.099881821 9.0
56.104805677 10.0
56.109729533 8.0
56.114653389 11.0
56.119577245 11.0
56.124501101 15.0
56.129424957 16.0
56.134348813 19.0
56.139272669 13.0
56.144196525 8.0
56.149120381 12.0
56.154044237 11.0
56.158968093 18.0
56.163891949 6.0
56.168815805 13.0
56.173739661 14.0
56.178663517 12.0
56.183587373 17.0
56.188511229 12.0
56.193435085 12.0
56.198358941 13.0
56.203282797 8.0
56.208206653 10.0
56.213130509 17.0
56.218054365 9.0
56.222978221 12.0
56.227902077 18.0
56.232825933 15.0
56.237749789 11.0
56.242673645 18.0
56.247597501 16.0
56.252521357 12.0
56.257445213 14.0
56.262369069 15.0
56.267292925 8.0
56.272216781 18.0
56.277140637 10.0
56.282064493 13.0
56.286988349 11.0
56.291912205 9.0
56.296836061 15.0
56.301759918 20.0
56.306683774 8.0
56.311607630 14.0
56.316531486 15.0
56.321455342 9.0
56.326379198 19.0
56.331303054 20.0
56.336226910 14.0
56.341150766 12.0
56.346074622 8.0
56.350998478 13.0
56.355922334 12.0
56.360846190 12.0
56.365770046 8.0
56.370693902 15.0
56.375617758 19.0
56.380541614 6.0
56.385465470 20.0
56.390389326 17.0
56.395313182 15.0
56.400237038 14.0
56.405160894 11.0
56.410084750 12.0
56.415008606 13.0
56.419932462 6.0
56.424856318 16.0
56.429780174 13.0
56.434704030 10.0
56.439627886 9.0
56.444551742 14.0
56.449475598 16.0
56.454399454 10.0
56.459323310 17.0
56.464247166 15.0
56.469171022 14.0
56.474094878 12.0
56.479018734 12.0
56.483942590 15.0
56.488866446 12.0
56.493790302 19.0
56.498714158 9.0
56.503638014 15.0
56.508561870 11.0
56.513485726 15.0
56.518409582 10.0
56.523333438 17.0
56.528257294 12.0
56.533181150 19.0
56.538105006 22.0
56.543028862 9.0
56.547952718 21.0
56.552876574 12.0
56.557800430 12.0
56.562724286 12.0
56.567648142 14.0
56.572571998 9.0
56.577495854 16.0
56.582419710 11.0
56.587343566 10.0
56.592267422 16.0
56.597191278 10.0
56.602115134 13.0
56.607038990 12.0
56.611962846 15.0
56.616886702 13.0
56.621810558 16.0
56.626734414 12.0
56.631658270 10.0
56.636582126 21.0
56.641505982 10.0
56.646429838 23.0
56.651353694 13.0
56.656277550 11.0
56.661201406 9.0
56.666125262 11.0
56.671049119 11.0
56.675972975 13.0
56.680896831 14.0
56.685820687 13.0
56.690744543 20.0
56.695668399 16.0
56.700592255 19.0
56.705516111 15.0
56.710439967 10.0
56.715363823 16.0
56.720287679 14.0
56.725211535 17.0
56.730135391 12.0
56.735059247 10.0
56.739983103 14.0
56.744906959 16.0
56.749830815 18.0
56.754754671 9.0
56.759678527 14.0
56.764602383 17.0
56.769526239 8.0
56.774450095 11.0
56.779373951 14.0
56.784297807 17.0
56.789221663 9.0
56.794145519 15.0
56.799069375 15.0
56.803993231 13.0
56.808917087 10.0
56.813840943 14.0
56.818764799 17.0
56.823688655 12.0
56.828612511 12.0
56.833536367 16.0
56.838460223 14.0
56.843384079 11.0
56.848307935 15.0
56.853231791 12.0
56.858155647 12.0
56.863079503 14.0
56.868003359 17.0
56.872927215 15.0
56.877851071 17.0
56.882774927 15.0
56.887698783 17.0
56.892622639 12.0
56.897546495 14.0
56.902470351 13.0
56.907394207 14.0
56.912318063 8.0
56.917241919 16.0
56.922165775 16.0
56.927089631 20.0
56.932013487 14.0
56.936937343 15.0
56.941861199 9.0
56.946785055 11.0
56.951708911 17.0
56.956632767 11.0
56.961556623 21.0
56.966480479 13.0
56.971404335 12.0
56.976328191 14.0
56.981252047 23.0
56.986175903 18.0
56.991099759 11.0
56.996023615 15.0
57.000947471 14.0
57.005871327 13.0
57.010795183 10.0
57.015719039 14.0
57.020642895 11.0
57.025566751 12.0
57.030490607 17.0
57.035414463 23.0
57.040338320 17.0
57.045262176 13.0
57.050186032 10.0
57.055109888 12.0
57.060033744 15.0
57.064957600 17.0
57.069881456 14.0
57.074805312 11.0
57.079729168 11.0
57.084653024 24.0
57.089576880 10.0
57.094500736 17.0
57.099424592 16.0
57.104348448 18.0
57.109272304 8.0
57.114196160 9.0
57.119120016 17.0
57.124043872 14.0
57.128967728 11.0
57.133891584 18.0
57.138815440 17.0
57.143739296 19.0
57.148663152 14.0
57.153587008 19.0
57.158510864 8.0
57.163434720 14.0
57.168358576 14.0
57.173282432 19.0
57.178206288 19.0
57.183130144 12.0
57.188054000 11.0
57.192977856 13.0
57.197901712 20.0
57.202825568 19.0
57.207749424 11.0
57.212673280 10.0
57.217597136 10.0
57.222520992 25.0
57.227444848 20.0
57.232368704 25.0
57.237292560 16.0
57.242216416 13.0
57.247140272 13.0
57.252064128 16.0
57.256987984 19.0
57.261911840 14.0
57.266835696 18.0
57.271759552 15.0
57.276683408 9.0
57.281607264 18.0
57.286531120 18.0
57.291454976 19.0
57.296378832 18.0
57.301302688 16.0
57.306226544 19.0
57.311150400 8.0
57.316074256 13.0
57.320998112 18.0
57.325921968 12.0
57.330845824 21.0
57.335769680 21.0
57.340693536 18.0
57.345617392 23.0
57.350541248 26.0
57.355465104 15.0
57.360388960 20.0
57.365312816 22.0
57.370236672 25.0
57.375160528 13.0
57.380084384 22.0
57.385008240 17.0
57.389932096 21.0
57.394855952 12.0
57.399779808 18.0
57.404703664 23.0
57.409627521 11.0
57.414551377 18.0
57.419475233 21.0
57.424399089 13.0
57.429322945 22.0
57.434246801 15.0
57.439170657 27.0
57.444094513 16.0
57.449018369 15.0
57.453942225 14.0
57.458866081 17.0
57.463789937 22.0
57.468713793 21.0
57.473637649 27.0
57.478561505 26.0
57.483485361 15.0
57.488409217 24.0
57.493333073 28.0
57.498256929 23.0
57.503180785 26.0
57.508104641 19.0
57.513028497 16.0
57.517952353 18.0
57.522876209 17.0
57.527800065 14.0
57.532723921 12.0
57.537647777 16.0
57.542571633 25.0
57.547495489 20.0
57.552419345 19.0
57.557343201 18.0
57.562267057 24.0
57.567190913 21.0
57.572114769 14.0
57.577038625 19.0
57.581962481 23.0
57.586886337 20.0
57.591810193 25.0
57.596734049 17.0
57.601657905 15.0
57.606581761 24.0
57.611505617 13.0
57.616429473 19.0
57.621353329 18.0
57.626277185 13.0
57.631201041 15.0
57.636124897 12.0
57.641048753 17.0
57.645972609 20.0
57.650896465 23.0
57.655820321 16.0
57.660744177 17.0
57.665668033 26.0
57.670591889 18.0
57.675515745 21.0
57.680439601 12.0
57.685363457 23.0
57.690287313 25.0
57.695211169 20.0
57.700135025 14.0
57.705058881 19.0
57.709982737 15.0
57.714906593 17.0
57.719830449 20.0
57.724754305 13.0
57.729678161 20.0
57.734602017 9.0
57.739525873 18.0
57.744449729 15.0
57.749373585 13.0
57.754297441 20.0
57.759221297 22.0
57.764145153 19.0
57.769069009 17.0
57.773992865 20.0
57.778916721 19.0
57.783840578 18.0
57.788764434 19.0
57.793688290 12.0
57.798612146 25.0
57.803536002 16.0
57.808459858 13.0
57.813383714 11.0
57.818307570 14.0
57.823231426 12.0
57.828155282 15.0
57.833079138 21.0
57.838002994 17.0
57.842926850 11.0
57.847850706 21.0
57.852774562 9.0
57.857698418 18.0
57.862622274 11.0
57.867546130 13.0
57.872469986 13.0
57.877393842 12.0
57.882317698 12.0
57.887241554 17.0
57.892165410 15.0
57.897089266 10.0
57.902013122 16.0
57.906936978 17.0
57.911860834 13.0
57.916784690 25.0
57.921708546 19.0
57.926632402 14.0
57.931556258 18.0
57.936480114 19.0
57.941403970 10.0
57.946327826 18.0
57.951251682 10.0
57.956175538 17.0
57.961099394 14.0
57.966023250 13.0
57.970947106 16.0
57.975870962 14.0
57.980794818 23.0
57.985718674 10.0
57.990642530 21.0
57.995566386 17.0
58.000490242 22.0
58.005414098 12.0
58.010337954 23.0
58.015261810 18.0
58.020185666 13.0
58.025109522 15.0
58.030033378 15.0
58.034957234 16.0
58.039881090 22.0
58.044804946 12.0
58.049728802 9.0
58.054652658 11.0
58.059576514 13.0
58.064500370 16.0
58.069424226 8.0
58.074348082 13.0
58.079271938 13.0
58.084195794 22.0
58.089119650 15.0
58.094043506 17.0
58.098967362 12.0
58.103891218 8.0
58.108815074 14.0
58.113738930 10.0
58.118662786 14.0
58.123586642 15.0
58.128510498 19.0
58.133434354 11.0
58.138358210 14.0
58.143282066 17.0
58.148205922 9.0
58.153129779 19.0
58.158053635 16.0
58.162977491 13.0
58.167901347 13.0
58.172825203 7.0
58.177749059 11.0
58.182672915 14.0
58.187596771 16.0
58.192520627 12.0
58.197444483 22.0
58.202368339 9.0
58.207292195 23.0
58.212216051 10.0
58.217139907 16.0
58.222063763 10.0
58.226987619 17.0
58.231911475 11.0
58.236835331 7.0
58.241759187 21.0
58.246683043 13.0
58.251606899 17.0
58.256530755 15.0
58.261454611 14.0
58.266378467 14.0
58.271302323 11.0
58.276226179 12.0
58.281150035 11.0
58.286073891 7.0
58.290997747 14.0
58.295921603 13.0
58.300845459 18.0
58.305769315 10.0
58.310693171 10.0
58.315617027 11.0
58.320540883 12.0
58.325464739 24.0
58.330388595 17.0
58.335312451 16.0
58.340236307 12.0
58.345160163 12.0
58.350084019 18.0
58.355007875 8.0
58.359931731 23.0
58.364855587 17.0
58.369779443 10.0
58.374703299 13.0
58.379627155 13.0
58.384551011 13.0
58.389474867 11.0
58.394398723 16.0
58.399322579 8.0
58.404246435 9.0
58.409170291 12.0
58.414094147 15.0
58.419018003 19.0
58.423941859 9.0
58.428865715 12.0
58.433789571 14.0
58.438713427 13.0
58.443637283 9.0
58.448561139 22.0
58.453484995 9.0
58.458408851 10.0
58.463332707 14.0
58.468256563 15.0
58.473180419 8.0
58.478104275 18.0
58.483028131 21.0
58.487951987 19.0
58.492875843 11.0
58.497799699 12.0
58.502723555 12.0
58.507647411 9.0
58.512571267 17.0
58.517495123 13.0
58.522418980 14.0
58.527342836 15.0
58.532266692 18.0
58.537190548 13.0
58.542114404 13.0
58.547038260 11.0
58.551962116 9.0
58.556885972 9.0
58.561809828 16.0
58.566733684 17.0
58.571657540 9.0
58.576581396 10.0
58.581505252 10.0
58.586429108 18.0
58.591352964 19.0
58.596276820 16.0
58.601200676 6.0
58.606124532 15.0
58.611048388 25.0
58.615972244 18.0
58.620896100 9.0
58.625819956 12.0
58.630743812 11.0
58.635667668 17.0
58.640591524 21.0
58.645515380 19.0
58.650439236 14.0
58.655363092 13.0
58.660286948 17.0
58.665210804 15.0
58.670134660 17.0
58.675058516 16.0
58.679982372 15.0
58.684906228 16.0
58.689830084 14.0
58.694753940 14.0
58.699677796 8.0
58.704601652 16.0
58.709525508 7.0
58.714449364 10.0
58.719373220 19.0
58.724297076 8.0
58.729220932 10.0
58.734144788 6.0
58.739068644 16.0
58.743992500 19.0
58.748916356 15.0
58.753840212 14.0
58.758764068 12.0
58.763687924 10.0
58.768611780 9.0
58.773535636 18.0
58.778459492 20.0
58.783383348 12.0
58.788307204 17.0
58.793231060 13.0
58.798154916 10.0
58.803078772 10.0
58.808002628 21.0
58.812926484 10.0
58.817850340 8.0
58.822774196 14.0
58.827698052 13.0
58.832621908 20.0
58.837545764 12.0
58.842469620 16.0
58.847393476 9.0
58.852317332 19.0
58.857241188 10.0
58.862165044 19.0
58.867088900 20.0
58.872012756 11.0
58.876936612 20.0
58.881860468 12.0
58.886784324 10.0
58.891708181 14.0
58.896632037 15.0
58.901555893 12.0
58.906479749 13.0
58.911403605 10.0
58.916327461 12.0
58.921251317 14.0
58.926175173 10.0
58.931099029 15.0
58.936022885 18.0
58.940946741 12.0
58.945870597 13.0
58.950794453 11.0
58.955718309 14.0
58.960642165 15.0
58.965566021 11.0
58.970489877 10.0
58.975413733 13.0
58.980337589 12.0
58.985261445 21.0
58.990185301 10.0
58.995109157 15.0
59.000033013 10.0
59.004956869 10.0
59.009880725 14.0
59.014804581 14.0
59.019728437 23.0
59.024652293 7.0
59.029576149 17.0
59.034500005 13.0
59.039423861 9.0
59.044347717 18.0
59.049271573 9.0
59.054195429 11.0
59.059119285 19.0
59.064043141 17.0
59.068966997 17.0
59.073890853 13.0
59.078814709 13.0
59.083738565 18.0
59.088662421 9.0
59.093586277 15.0
59.098510133 12.0
59.103433989 15.0
59.108357845 11.0
59.113281701 11.0
59.118205557 20.0
59.123129413 18.0
59.128053269 12.0
59.132977125 13.0
59.137900981 14.0
59.142824837 11.0
59.147748693 20.0
59.152672549 21.0
59.157596405 25.0
59.162520261 12.0
59.167444117 18.0
59.172367973 13.0
59.177291829 10.0
59.182215685 13.0
59.187139541 10.0
59.192063397 10.0
59.196987253 14.0
59.201911109 15.0
59.206834965 11.0
59.211758821 15.0
59.216682677 13.0
59.221606533 20.0
59.226530389 17.0
59.231454245 12.0
59.236378101 19.0
59.241301957 14.0
59.246225813 15.0
59.251149669 10.0
59.256073525 16.0
59.260997382 9.0
59.265921238 19.0
59.270845094 15.0
59.275768950 15.0
59.280692806 8.0
59.285616662 13.0
59.290540518 15.0
59.295464374 14.0
59.300388230 9.0
59.305312086 16.0
59.310235942 12.0
59.315159798 13.0
59.320083654 15.0
59.325007510 16.0
59.329931366 9.0
59.334855222 10.0
59.339779078 12.0
59.344702934 14.0
59.349626790 10.0
59.354550646 15.0
59.359474502 20.0
59.364398358 23.0
59.369322214 7.0
59.374246070 16.0
59.379169926 15.0
59.384093782 9.0
59.389017638 17.0
59.393941494 10.0
59.398865350 13.0
59.403789206 11.0
59.408713062 15.0
59.413636918 18.0
59.418560774 18.0
59.423484630 12.0
59.428408486 11.0
59.433332342 16.0
59.438256198 18.0
59.443180054 20.0
59.448103910 11.0
59.453027766 18.0
59.457951622 13.0
59.462875478 16.0
59.467799334 13.0
59.472723190 15.0
59.477647046 15.0
59.482570902 16.0
59.487494758 14.0
59.492418614 12.0
59.497342470 16.0
59.502266326 12.0
59.507190182 17.0
59.512114038 14.0
59.517037894 11.0
59.521961750 7.0
59.526885606 13.0
59.531809462 12.0
59.536733318 9.0
59.541657174 15.0
59.546581030 10.0
59.551504886 15.0
59.556428742 11.0
59.561352598 15.0
59.566276454 14.0
59.571200310 14.0
59.576124166 6.0
59.581048022 11.0
59.585971878 12.0
59.590895734 8.0
59.595819590 9.0
59.600743446 15.0
59.605667302 13.0
59.610591158 19.0
59.615515014 10.0
59.620438870 13.0
59.625362726 17.0
59.630286582 20.0
59.635210439 8.0
59.640134295 11.0
59.645058151 9.0
59.649982007 12.0
59.654905863 18.0
59.659829719 14.0
59.664753575 20.0
59.669677431 11.0
59.674601287 11.0
59.679525143 18.0
59.684448999 14.0
59.689372855 16.0
59.694296711 8.0
59.699220567 8.0
59.704144423 9.0
59.709068279 13.0
59.713992135 19.0
59.718915991 19.0
59.723839847 17.0
59.728763703 18.0
59.733687559 14.0
59.738611415 14.0
59.743535271 23.0
59.748459127 26.0
59.753382983 12.0
59.758306839 18.0
59.763230695 12.0
59.768154551 15.0
59.773078407 7.0
59.778002263 19.0
59.782926119 12.0
59.787849975 14.0
59.792773831 14.0
59.797697687 11.0
59.802621543 9.0
59.807545399 10.0
59.812469255 14.0
59.817393111 12.0
59.822316967 16.0
59.827240823 22.0
59.832164679 14.0
59.837088535 12.0
59.842012391 9.0
59.846936247 16.0
59.851860103 19.0
59.856783959 11.0
59.861707815 17.0
59.866631671 17.0
59.871555527 12.0
59.876479383 9.0
59.881403239 17.0
59.886327095 9.0
59.891250951 11.0
59.896174807 16.0
59.901098663 13.0
59.906022519 6.0
59.910946375 16.0
59.915870231 8.0
59.920794087 10.0
59.925717943 16.0
59.930641799 16.0
59.935565655 15.0
59.940489511 12.0
59.945413367 21.0
59.950337223 8.0
59.955261079 17.0
59.960184935 17.0
59.965108791 13.0
59.970032647 9.0
59.974956503 8.0
59.979880359 14.0
59.984804215 11.0
59.989728071 16.0
59.994651927 22.0
59.999575783 11.0
60.004499640 8.0
60.009423496 11.0
60.014347352 17.0
60.019271208 17.0
60.024195064 16.0
60.029118920 18.0
60.034042776 12.0
60.038966632 6.0
60.043890488 10.0
60.048814344 18.0
60.053738200 13.0
60.058662056 19.0
60.063585912 11.0
60.068509768 14.0
60.073433624 10.0
60.078357480 17.0
60.083281336 21.0
60.088205192 9.0
60.093129048 15.0
60.098052904 15.0
60.102976760 16.0
60.107900616 22.0
60.112824472 18.0
60.117748328 10.0
60.122672184 16.0
60.127596040 16.0
60.132519896 11.0
60.137443752 9.0
60.142367608 17.0
60.147291464 16.0
60.152215320 12.0
60.157139176 19.0
60.162063032 8.0
60.166986888 15.0
60.171910744 15.0
60.176834600 14.0
60.181758456 18.0
60.186682312 9.0
60.191606168 12.0
60.196530024 25.0
60.201453880 13.0
60.206377736 15.0
60.211301592 18.0
60.216225448 28.0
60.221149304 19.0
60.226073160 19.0
60.230997016 14.0
60.235920872 20.0
60.240844728 21.0
60.245768584 15.0
60.250692440 19.0
60.255616296 23.0
60.260540152 26.0
60.265464008 20.0
60.270387864 15.0
60.275311720 23.0
60.280235576 22.0
60.285159432 20.0
60.290083288 22.0
60.295007144 17.0
60.299931000 22.0
60.304854856 18.0
60.309778712 25.0
60.314702568 26.0
60.319626424 18.0
60.324550280 12.0
60.329474136 22.0
60.334397992 29.0
60.339321848 15.0
60.344245704 24.0
60.349169560 20.0
60.354093416 16.0
60.359017272 26.0
60.363941128 13.0
60.368864984 18.0
60.373788841 17.0
60.378712697 19.0
60.383636553 29.0
60.388560409 12.0
60.393484265 13.0
60.398408121 18.0
60.403331977 22.0
60.408255833 14.0
60.413179689 18.0
60.418103545 23.0
60.423027401 27.0
60.427951257 22.0
60.432875113 17.0
60.437798969 22.0
60.442722825 15.0
60.447646681 18.0
60.452570537 20.0
60.457494393 25.0
60.462418249 21.0
60.467342105 17.0
60.472265961 18.0
60.477189817 16.0
60.482113673 17.0
60.487037529 22.0
60.491961385 14.0
60.496885241 20.0
60.501809097 18.0
60.506732953 21.0
60.511656809 20.0
60.516580665 23.0
60.521504521 13.0
60.526428377 19.0
60.531352233 16.0
60.536276089 20.0
60.541199945 16.0
60.546123801 24.0
60.551047657 17.0
60.555971513 21.0
60.560895369 25.0
60.565819225 22.0
60.570743081 15.0
60.575666937 19.0
60.580590793 16.0
60.585514649 32.0
60.590438505 22.0
60.595362361 26.0
60.600286217 27.0
60.605210073 33.0
60.610133929 32.0
60.615057785 19.0
60.619981641 27.0
60.624905497 19.0
60.629829353 33.0
60.634753209 29.0
60.639677065 17.0
60.644600921 30.0
60.649524777 26.0
60.654448633 28.0
60.659372489 22.0
60.664296345 34.0
60.669220201 36.0
60.674144057 32.0
60.679067913 28.0
60.683991769 40.0
60.688915625 62.0
60.693839481 51.0
60.698763337 50.0
60.703687193 60.0
60.708611049 66.0
60.713534905 74.0
60.718458761 82.0
60.723382617 89.0
60.728306473 116.0
60.733230329 128.0
60.738154185 142.0
60.743078042 169.0
60.748001898 194.0
60.752925754 299.0
60.757849610 332.0
60.762773466 399.0
60.767697322 458.0
60.772621178 530.0
60.777545034 583.0
60.782468890 669.0
60.787392746 665.0
60.792316602 690.0
60.797240458 722.0
60.802164314 638.0
60.807088170 659.0
60.812012026 626.0
60.816935882 518.0
60.821859738 486.0
60.826783594 439.0
60.831707450 406.0
60.836631306 348.0
60.841555162 317.0
60.846479018 264.0
60.851402874 273.0
60.856326730 228.0
60.861250586 207.0
60.866174442 262.0
60.871098298 219.0
60.876022154 221.0
60.880946010 185.0
60.885869866 192.0
60.890793722 191.0
60.895717578 159.0
60.900641434 145.0
60.905565290 131.0
60.910489146 131.0
60.915413002 99.0
60.920336858 90.0
60.925260714 78.0
60.930184570 84.0
60.935108426 78.0
60.940032282 68.0
60.944956138 59.0
60.949879994 61.0
60.954803850 46.0
60.959727706 44.0
60.964651562 50.0
60.969575418 48.0
60.974499274 47.0
60.979423130 51.0
60.984346986 40.0
60.989270842 31.0
60.994194698 46.0
60.999118554 42.0
61.004042410 37.0
61.008966266 46.0
61.013890122 26.0
61.018813978 31.0
61.023737834 31.0
61.028661690 33.0
61.033585546 42.0
61.038509402 32.0
61.043433258 36.0
61.048357114 43.0
61.053280970 33.0
61.058204826 25.0
61.063128682 35.0
61.068052538 24.0
61.072976394 30.0
61.077900250 29.0
61.082824106 32.0
61.087747962 31.0
61.092671818 23.0
61.097595674 32.0
61.102519530 27.0
61.107443386 24.0
61.112367243 29.0
61.117291099 18.0
61.122214955 23.0
61.127138811 20.0
61.132062667 38.0
61.136986523 28.0
61.141910379 26.0
61.146834235 28.0
61.151758091 28.0
61.156681947 21.0
61.161605803 31.0
61.166529659 21.0
61.171453515 24.0
61.176377371 27.0
61.181301227 19.0
61.186225083 33.0
61.191148939 26.0
61.196072795 27.0
61.200996651 31.0
61.205920507 27.0
61.210844363 18.0
61.215768219 21.0
61.220692075 21.0
61.225615931 24.0
61.230539787 34.0
61.235463643 25.0
61.240387499 24.0
61.245311355 26.0
61.250235211 20.0
61.255159067 26.0
61.260082923 19.0
61.265006779 21.0
61.269930635 27.0
61.274854491 20.0
61.279778347 21.0
61.284702203 21.0
61.289626059 25.0
61.294549915 24.0
61.299473771 27.0
61.304397627 22.0
61.309321483 22.0
61.314245339 21.0
61.319169195 15.0
61.324093051 27.0
61.329016907 19.0
61.333940763 16.0
61.338864619 22.0
61.343788475 21.0
61.348712331 24.0
61.353636187 24.0
61.358560043 22.0
61.363483899 22.0
61.368407755 13.0
61.373331611 22.0
61.378255467 23.0
61.383179323 24.0
61.388103179 23.0
61.393027035 25.0
61.397950891 19.0
61.402874747 15.0
61.407798603 28.0
61.412722459 18.0
61.417646315 15.0
61.422570171 23.0
61.427494027 23.0
61.432417883 18.0
61.437341739 19.0
61.442265595 22.0
61.447189451 21.0
61.452113307 17.0
61.457037163 26.0
61.461961019 27.0
61.466884875 24.0
61.471808731 22.0
61.476732587 23.0
61.481656443 22.0
61.486580300 27.0
61.491504156 22.0
61.496428012 20.0
61.501351868 28.0
61.506275724 29.0
61.511199580 19.0
61.516123436 19.0
61.521047292 22.0
61.525971148 23.0
61.530895004 27.0
61.535818860 19.0
61.540742716 26.0
61.545666572 17.0
61.550590428 19.0
61.555514284 23.0
61.560438140 23.0
61.565361996 20.0
61.570285852 24.0
61.575209708 20.0
61.580133564 20.0
61.585057420 23.0
61.589981276 16.0
61.594905132 27.0
61.599828988 19.0
61.604752844 17.0
61.609676700 16.0
61.614600556 24.0
61.619524412 20.0
61.624448268 16.0
61.629372124 23.0
61.634295980 18.0
61.639219836 18.0
61.644143692 21.0
61.649067548 16.0
61.653991404 12.0
61.658915260 26.0
61.663839116 29.0
61.668762972 16.0
61.673686828 17.0
61.678610684 16.0
61.683534540 23.0
61.688458396 17.0
61.693382252 24.0
61.698306108 19.0
61.703229964 26.0
61.708153820 22.0
61.713077676 15.0
61.718001532 24.0
61.722925388 21.0
61.727849244 24.0
61.732773100 21.0
61.737696956 26.0
61.742620812 22.0
61.747544668 26.0
61.752468524 21.0
61.757392380 30.0
61.762316236 19.0
61.767240092 26.0
61.772163948 19.0
61.777087804 32.0
61.782011660 24.0
61.786935516 16.0
61.791859372 18.0
61.796783228 19.0
61.801707084 21.0
61.806630940 15.0
61.811554796 19.0
61.816478652 23.0
61.821402508 17.0
61.826326364 26.0
61.831250220 22.0
61.836174076 19.0
61.841097932 39.0
61.846021788 19.0
61.850945644 24.0
61.855869501 19.0
61.860793357 21.0
61.865717213 23.0
61.870641069 17.0
61.875564925 23.0
61.880488781 22.0
61.885412637 28.0
61.890336493 24.0
61.895260349 15.0
61.900184205 23.0
61.905108061 21.0
61.910031917 24.0
61.914955773 27.0
61.919879629 24.0
61.924803485 25.0
61.929727341 24.0
61.934651197 23.0
61.939575053 23.0
61.944498909 24.0
61.949422765 20.0
61.954346621 19.0
61.959270477 26.0
61.964194333 18.0
61.969118189 35.0
61.974042045 19.0
61.978965901 22.0
61.983889757 24.0
61.988813613 24.0
61.993737469 27.0
61.998661325 27.0
62.003585181 24.0
62.008509037 24.0
62.013432893 29.0
62.018356749 12.0
62.023280605 24.0
62.028204461 29.0
62.033128317 19.0
62.038052173 30.0
62.042976029 25.0
62.047899885 26.0
62.052823741 35.0
62.057747597 20.0
62.062671453 27.0
62.067595309 21.0
62.072519165 28.0
62.077443021 26.0
62.082366877 18.0
62.087290733 26.0
62.092214589 25.0
62.097138445 30.0
62.102062301 30.0
62.106986157 15.0
62.111910013 22.0
62.116833869 23.0
62.121757725 32.0
62.126681581 24.0
62.131605437 28.0
62.136529293 17.0
62.141453149 32.0
62.146377005 22.0
62.151300861 20.0
62.156224717 29.0
62.161148573 29.0
62.166072429 23.0
62.170996285 24.0
62.175920141 23.0
62.180843997 35.0
62.185767853 25.0
62.190691709 21.0
62.195615565 31.0
62.200539421 31.0
62.205463277 33.0
62.210387133 26.0
62.215310989 28.0
62.220234845 20.0
62.225158702 38.0
62.230082558 21.0
62.235006414 20.0
62.239930270 30.0
62.244854126 28.0
62.249777982 22.0
62.254701838 23.0
62.259625694 28.0
62.264549550 28.0
62.269473406 28.0
62.274397262 22.0
62.279321118 29.0
62.284244974 23.0
62.289168830 20.0
62.294092686 31.0
62.299016542 24.0
62.303940398 17.0
62.308864254 15.0
62.313788110 20.0
62.318711966 30.0
62.323635822 30.0
62.328559678 28.0
62.333483534 19.0
62.338407390 25.0
62.343331246 34.0
62.348255102 27.0
62.353178958 19.0
62.358102814 26.0
62.363026670 27.0
62.367950526 18.0
62.372874382 24.0
62.377798238 15.0
62.382722094 26.0
62.387645950 31.0
62.392569806 30.0
62.397493662 29.0
62.402417518 27.0
62.407341374 23.0
62.412265230 23.0
62.417189086 33.0
62.422112942 27.0
62.427036798 21.0
62.431960654 30.0
62.436884510 31.0
62.441808366 38.0
62.446732222 33.0
62.451656078 33.0
62.456579934 29.0
62.461503790 41.0
62.466427646 30.0
62.471351502 30.0
62.476275358 34.0
62.481199214 29.0
62.486123070 27.0
62.491046926 41.0
62.495970782 38.0
62.500894638 25.0
62.505818494 40.0
62.510742350 34.0
62.515666206 31.0
62.520590062 35.0
62.525513918 43.0
62.530437774 34.0
62.535361630 26.0
62.540285486 35.0
62.545209342 24.0
62.550133198 27.0
62.555057054 35.0
62.559980910 27.0
62.564904766 22.0
62.569828622 33.0
62.574752478 49.0
62.579676334 37.0
62.584600190 30.0
62.589524046 51.0
62.594447903 29.0
62.599371759 30.0
62.604295615 29.0
62.609219471 33.0
62.614143327 35.0
62.619067183 30.0
62.623991039 35.0
62.628914895 30.0
62.633838751 39.0
62.638762607 30.0
62.643686463 30.0
62.648610319 29.0
62.653534175 29.0
62.658458031 34.0
62.663381887 43.0
62.668305743 24.0
62.673229599 38.0
62.678153455 32.0
62.683077311 33.0
62.688001167 42.0
62.692925023 30.0
62.697848879 21.0
62.702772735 32.0
62.707696591 47.0
62.712620447 33.0
62.717544303 36.0
62.722468159 41.0
62.727392015 46.0
62.732315871 35.0
62.737239727 39.0
62.742163583 30.0
62.747087439 39.0
62.752011295 41.0
62.756935151 36.0
62.761859007 37.0
62.766782863 37.0
62.771706719 39.0
62.776630575 40.0
62.781554431 37.0
62.786478287 43.0
62.791402143 43.0
62.796325999 34.0
62.801249855 44.0
62.806173711 40.0
62.811097567 28.0
62.816021423 48.0
62.820945279 48.0
62.825869135 25.0
62.830792991 37.0
62.835716847 33.0
62.840640703 42.0
62.845564559 47.0
62.850488415 32.0
62.855412271 37.0
62.860336127 36.0
62.865259983 36.0
62.870183839 46.0
62.875107695 44.0
62.880031551 43.0
62.884955407 51.0
62.889879263 35.0
62.894803119 38.0
62.899726975 45.0
62.904650831 45.0
62.909574687 64.0
62.914498543 32.0
62.919422399 40.0
62.924346255 32.0
62.929270111 51.0
62.934193967 54.0
62.939117823 51.0
62.944041679 40.0
62.948965535 39.0
62.953889391 43.0
62.958813247 52.0
62.963737104 46.0
62.968660960 53.0
62.973584816 54.0
62.978508672 41.0
62.983432528 48.0
62.988356384 48.0
62.993280240 39.0
62.998204096 41.0
63.003127952 41.0
63.008051808 48.0
63.012975664 45.0
63.017899520 46.0
63.022823376 42.0
63.027747232 45.0
63.032671088 44.0
63.037594944 47.0
63.042518800 54.0
63.047442656 46.0
63.052366512 45.0
63.057290368 43.0
63.062214224 58.0
63.067138080 52.0
63.072061936 48.0
63.076985792 52.0
63.081909648 48.0
63.086833504 56.0
63.091757360 51.0
63.096681216 45.0
63.101605072 59.0
63.106528928 47.0
63.111452784 54.0
63.116376640 62.0
63.121300496 56.0
63.126224352 51.0
63.131148208 62.0
63.136072064 44.0
63.140995920 52.0
63.145919776 51.0
63.150843632 43.0
63.155767488 53.0
63.160691344 46.0
63.165615200 57.0
63.170539056 61.0
63.175462912 55.0
63.180386768 64.0
63.185310624 51.0
63.190234480 54.0
63.195158336 61.0
63.200082192 55.0
63.205006048 51.0
63.209929904 61.0
63.214853760 52.0
63.219777616 67.0
63.224701472 67.0
63.229625328 63.0
63.234549184 69.0
63.239473040 58.0
63.244396896 50.0
63.249320752 57.0
63.254244608 62.0
63.259168464 56.0
63.264092320 54.0
63.269016176 76.0
63.273940032 70.0
63.278863888 68.0
63.283787744 68.0
63.288711600 68.0
63.293635456 55.0
63.298559312 68.0
63.303483168 60.0
63.308407024 64.0
63.313330880 65.0
63.318254736 53.0
63.323178592 68.0
63.328102448 70.0
63.333026304 62.0
63.337950161 75.0
63.342874017 84.0
63.347797873 61.0
63.352721729 89.0
63.357645585 83.0
63.362569441 75.0
63.367493297 75.0
63.372417153 82.0
63.377341009 79.0
63.382264865 66.0
63.387188721 85.0
63.392112577 63.0
63.397036433 67.0
63.401960289 77.0
63.406884145 93.0
63.411808001 108.0
63.416731857 80.0
63.421655713 86.0
63.426579569 94.0
63.431503425 85.0
63.436427281 84.0
63.441351137 106.0
63.446274993 97.0
63.451198849 96.0
63.456122705 100.0
63.461046561 84.0
63.465970417 87.0
63.470894273 101.0
63.475818129 108.0
63.480741985 93.0
63.485665841 97.0
63.490589697 94.0
63.495513553 97.0
63.500437409 114.0
63.505361265 98.0
63.510285121 107.0
63.515208977 112.0
63.520132833 98.0
63.525056689 108.0
63.529980545 99.0
63.534904401 112.0
63.539828257 125.0
63.544752113 110.0
63.549675969 106.0
63.554599825 94.0
63.559523681 111.0
63.564447537 114.0
63.569371393 123.0
63.574295249 123.0
63.579219105 109.0
63.584142961 132.0
63.589066817 133.0
63.593990673 113.0
63.598914529 127.0
63.603838385 115.0
63.608762241 105.0
63.613686097 122.0
63.618609953 139.0
63.623533809 133.0
63.628457665 135.0
63.633381521 146.0
63.638305377 145.0
63.643229233 146.0
63.648153089 149.0
63.653076945 163.0
63.658000801 134.0
63.662924657 168.0
63.667848513 181.0
63.672772369 145.0
63.677696225 152.0
63.682620081 157.0
63.687543937 184.0
63.692467793 147.0
63.697391649 178.0
63.702315505 177.0
63.707239362 184.0
63.712163218 203.0
63.717087074 185.0
63.722010930 219.0
63.726934786 190.0
63.731858642 200.0
63.736782498 204.0
63.741706354 203.0
63.746630210 206.0
63.751554066 215.0
63.756477922 223.0
63.761401778 212.0
63.766325634 210.0
63.771249490 206.0
63.776173346 211.0
63.781097202 211.0
63.786021058 218.0
63.790944914 234.0
63.795868770 214.0
63.800792626 235.0
63.805716482 270.0
63.810640338 289.0
63.815564194 269.0
63.820488050 257.0
63.825411906 289.0
63.830335762 268.0
63.835259618 308.0
63.840183474 298.0
63.845107330 303.0
63.850031186 288.0
63.854955042 319.0
63.859878898 300.0
63.864802754 327.0
63.869726610 329.0
63.874650466 316.0
63.879574322 326.0
63.884498178 384.0
63.889422034 389.0
63.894345890 377.0
63.899269746 361.0
63.904193602 398.0
63.909117458 359.0
63.914041314 382.0
63.918965170 418.0
63.923889026 392.0
63.928812882 376.0
63.933736738 447.0
63.938660594 450.0
63.943584450 449.0
63.948508306 495.0
63.953432162 444.0
63.958356018 453.0
63.963279874 478.0
63.968203730 510.0
63.973127586 468.0
63.978051442 499.0
63.982975298 533.0
63.987899154 559.0
63.992823010 558.0
63.997746866 591.0
64.002670722 566.0
64.007594578 546.0
64.012518434 597.0
64.017442290 613.0
64.022366146 575.0
64.027290002 619.0
64.032213858 655.0
64.037137714 666.0
64.042061570 699.0
64.046985426 684.0
64.051909282 680.0
64.056833138 730.0
64.061756994 714.0
64.066680850 690.0
64.071604706 718.0
64.076528563 800.0
64.081452419 778.0
64.086376275 824.0
64.091300131 867.0
64.096223987 838.0
64.101147843 818.0
64.106071699 872.0
64.110995555 894.0
64.115919411 933.0
64.120843267 886.0
64.125767123 981.0
64.130690979 958.0
64.135614835 1018.0
64.140538691 989.0
64.145462547 1019.0
64.150386403 1030.0
64.155310259 1107.0
64.160234115 1109.0
64.165157971 1150.0
64.170081827 1191.0
64.175005683 1215.0
64.179929539 1215.0
64.184853395 1251.0
64.189777251 1206.0
64.194701107 1246.0
64.199624963 1344.0
64.204548819 1345.0
64.209472675 1286.0
64.214396531 1351.0
64.219320387 1358.0
64.224244243 1321.0
64.229168099 1408.0
64.234091955 1463.0
64.239015811 1500.0
64.243939667 1520.0
64.248863523 1467.0
64.253787379 1472.0
64.258711235 1493.0
64.263635091 1517.0
64.268558947 1503.0
64.273482803 1596.0
64.278406659 1553.0
64.283330515 1576.0
64.288254371 1569.0
64.293178227 1604.0
64.298102083 1736.0
64.303025939 1666.0
64.307949795 1681.0
64.312873651 1748.0
64.317797507 1744.0
64.322721363 1736.0
64.327645219 1688.0
64.332569075 1783.0
64.337492931 1713.0
64.342416787 1692.0
64.347340643 1702.0
64.352264499 1724.0
64.357188355 1757.0
64.362112211 1728.0
64.367036067 1751.0
64.371959923 1671.0
64.376883779 1649.0
64.381807635 1621.0
64.386731491 1727.0
64.391655347 1645.0
64.396579203 1602.0
64.401503059 1562.0
64.406426915 1665.0
64.411350771 1618.0
64.416274627 1635.0
64.421198483 1557.0
64.426122339 1526.0
64.431046195 1546.0
64.435970051 1524.0
64.440893907 1491.0
64.445817764 1521.0
64.450741620 1503.0
64.455665476 1460.0
64.460589332 1492.0
64.465513188 1468.0
64.470437044 1433.0
64.475360900 1360.0
64.480284756 1388.0
64.485208612 1427.0
64.490132468 1375.0
64.495056324 1296.0
64.499980180 1337.0
64.504904036 1287.0
64.509827892 1280.0
64.514751748 1298.0
64.519675604 1254.0
64.524599460 1217.0
64.529523316 1220.0
64.534447172 1143.0
64.539371028 1218.0
64.544294884 1168.0
64.549218740 1173.0
64.554142596 1175.0
64.559066452 1115.0
64.563990308 1108.0
64.568914164 1017.0
64.573838020 1097.0
64.578761876 971.0
64.583685732 1036.0
64.588609588 971.0
64.593533444 977.0
64.598457300 873.0
64.603381156 967.0
64.608305012 943.0
64.613228868 883.0
64.618152724 853.0
64.623076580 873.0
64.628000436 802.0
64.632924292 817.0
64.637848148 751.0
64.642772004 759.0
64.647695860 769.0
64.652619716 672.0
64.657543572 692.0
64.662467428 665.0
64.667391284 670.0
64.672315140 677.0
64.677238996 656.0
64.682162852 616.0
64.687086708 662.0
64.692010564 651.0
64.696934420 605.0
64.701858276 592.0
64.706782132 552.0
64.711705988 550.0
64.716629844 575.0
64.721553700 523.0
64.726477556 508.0
64.731401412 486.0
64.736325268 521.0
64.741249124 484.0
64.746172980 513.0
64.751096836 438.0
64.756020692 489.0
64.760944548 450.0
64.765868404 440.0
64.770792260 400.0
64.775716116 401.0
64.780639972 451.0
64.785563828 462.0
64.790487684 416.0
64.795411540 396.0
64.800335396 380.0
64.805259252 378.0
64.810183108 368.0
64.815106965 370.0
64.820030821 390.0
64.824954677 344.0
64.829878533 372.0
64.834802389 327.0
64.839726245 332.0
64.844650101 321.0
64.849573957 310.0
64.854497813 296.0
64.859421669 314.0
64.864345525 309.0
64.869269381 288.0
64.874193237 309.0
64.879117093 307.0
64.884040949 303.0
64.888964805 289.0
64.893888661 288.0
64.898812517 264.0
64.903736373 265.0
64.908660229 274.0
64.913584085 255.0
64.918507941 258.0
64.923431797 246.0
64.928355653 258.0
64.933279509 265.0
64.938203365 262.0
64.943127221 205.0
64.948051077 263.0
64.952974933 202.0
64.957898789 238.0
64.962822645 217.0
64.967746501 231.0
64.972670357 200.0
64.977594213 200.0
64.982518069 200.0
64.987441925 195.0
64.992365781 221.0
64.997289637 188.0
65.002213493 192.0
65.007137349 194.0
65.012061205 181.0
65.016985061 196.0
65.021908917 170.0
65.026832773 172.0
65.031756629 167.0
65.036680485 170.0
65.041604341 177.0
65.046528197 148.0
65.051452053 182.0
65.056375909 149.0
65.061299765 157.0
65.066223621 149.0
65.071147477 153.0
65.076071333 158.0
65.080995189 164.0
65.085919045 149.0
65.090842901 150.0
65.095766757 163.0
65.100690613 146.0
65.105614469 155.0
65.110538325 149.0
65.115462181 130.0
65.120386037 150.0
65.125309893 108.0
65.130233749 144.0
65.135157605 147.0
65.140081461 143.0
65.145005317 134.0
65.149929173 116.0
65.154853029 129.0
65.159776885 150.0
65.164700741 125.0
65.169624597 118.0
65.174548453 129.0
65.179472309 115.0
65.184396165 145.0
65.189320022 110.0
65.194243878 102.0
65.199167734 138.0
65.204091590 118.0
65.209015446 126.0
65.213939302 95.0
65.218863158 127.0
65.223787014 117.0
65.228710870 114.0
65.233634726 108.0
65.238558582 114.0
65.243482438 101.0
65.248406294 101.0
65.253330150 117.0
65.258254006 100.0
65.263177862 103.0
65.268101718 110.0
65.273025574 111.0
65.277949430 112.0
65.282873286 98.0
65.287797142 87.0
65.292720998 97.0
65.297644854 114.0
65.302568710 102.0
65.307492566 98.0
65.312416422 97.0
65.317340278 121.0
65.322264134 112.0
65.327187990 97.0
65.332111846 92.0
65.337035702 89.0
65.341959558 71.0
65.346883414 83.0
65.351807270 103.0
65.356731126 96.0
65.361654982 100.0
65.366578838 85.0
65.371502694 82.0
65.376426550 94.0
65.381350406 83.0
65.386274262 84.0
65.391198118 87.0
65.396121974 93.0
65.401045830 93.0
65.405969686 90.0
65.410893542 82.0
65.415817398 88.0
65.420741254 78.0
65.425665110 84.0
65.430588966 74.0
65.435512822 84.0
65.440436678 71.0
65.445360534 99.0
65.450284390 91.0
65.455208246 72.0
65.460132102 79.0
65.465055958 93.0
65.469979814 77.0
65.474903670 67.0
65.479827526 79.0
65.484751382 89.0
65.489675238 87.0
65.494599094 86.0
65.499522950 73.0
65.504446806 80.0
65.509370662 89.0
65.514294518 79.0
65.519218374 80.0
65.524142230 71.0
65.529066086 91.0
65.533989942 72.0
65.538913798 77.0
65.543837654 71.0
65.548761510 76.0
65.553685366 83.0
65.558609223 71.0
65.563533079 61.0
65.568456935 83.0
65.573380791 71.0
65.578304647 58.0
65.583228503 67.0
65.588152359 62.0
65.593076215 76.0
65.598000071 59.0
65.602923927 57.0
65.607847783 56.0
65.612771639 66.0
65.617695495 71.0
65.622619351 79.0
65.627543207 70.0
65.632467063 62.0
65.637390919 81.0
65.642314775 59.0
65.647238631 77.0
65.652162487 72.0
65.657086343 66.0
65.662010199 74.0
65.666934055 70.0
65.671857911 61.0
65.676781767 50.0
65.681705623 48.0
65.686629479 69.0
65.691553335 83.0
65.696477191 51.0
65.701401047 60.0
65.706324903 57.0
65.711248759 66.0
65.716172615 53.0
65.721096471 70.0
65.726020327 74.0
65.730944183 57.0
65.735868039 59.0
65.740791895 70.0
65.745715751 87.0
65.750639607 65.0
65.755563463 76.0
65.760487319 80.0
65.765411175 76.0
65.770335031 68.0
65.775258887 75.0
65.780182743 51.0
65.785106599 70.0
65.790030455 63.0
65.794954311 57.0
65.799878167 72.0
65.804802023 57.0
65.809725879 63.0
65.814649735 54.0
65.819573591 66.0
65.824497447 54.0
65.829421303 60.0
65.834345159 62.0
65.839269015 56.0
65.844192871 50.0
65.849116727 55.0
65.854040583 55.0
65.858964439 78.0
65.863888295 62.0
65.868812151 65.0
65.873736007 62.0
65.878659863 67.0
65.883583719 66.0
65.888507575 70.0
65.893431431 74.0
65.898355287 53.0
65.903279143 69.0
65.908202999 63.0
65.913126855 57.0
65.918050711 58.0
65.922974567 76.0
65.927898424 59.0
65.932822280 60.0
65.937746136 50.0
65.942669992 73.0
65.947593848 70.0
65.952517704 60.0
65.957441560 53.0
65.962365416 63.0
65.967289272 74.0
65.972213128 63.0
65.977136984 62.0
65.982060840 68.0
65.986984696 67.0
65.991908552 75.0
65.996832408 64.0
66.001756264 67.0
66.006680120 67.0
66.011603976 64.0
66.016527832 66.0
66.021451688 75.0
66.026375544 56.0
66.031299400 65.0
66.036223256 66.0
66.041147112 65.0
66.046070968 63.0
66.050994824 68.0
66.055918680 56.0
66.060842536 64.0
66.065766392 72.0
66.070690248 69.0
66.075614104 79.0
66.080537960 69.0
66.085461816 68.0
66.090385672 67.0
66.095309528 81.0
66.100233384 67.0
66.105157240 65.0
66.110081096 61.0
66.115004952 67.0
66.119928808 64.0
66.124852664 79.0
66.129776520 60.0
66.134700376 60.0
66.139624232 68.0
66.144548088 83.0
66.149471944 74.0
66.154395800 68.0
66.159319656 74.0
66.164243512 78.0
66.169167368 72.0
66.174091224 76.0
66.179015080 79.0
66.183938936 85.0
66.188862792 78.0
66.193786648 66.0
66.198710504 79.0
66.203634360 92.0
66.208558216 75.0
66.213482072 72.0
66.218405928 62.0
66.223329784 75.0
66.228253640 85.0
66.233177496 60.0
66.238101352 90.0
66.243025208 76.0
66.247949064 62.0
66.252872920 70.0
66.257796776 89.0
66.262720632 60.0
66.267644488 89.0
66.272568344 82.0
66.277492200 70.0
66.282416056 73.0
66.287339912 80.0
66.292263768 71.0
66.297187625 83.0
66.302111481 75.0
66.307035337 92.0
66.311959193 79.0
66.316883049 87.0
66.321806905 77.0
66.326730761 70.0
66.331654617 78.0
66.336578473 88.0
66.341502329 84.0
66.346426185 96.0
66.351350041 89.0
66.356273897 75.0
66.361197753 102.0
66.366121609 83.0
66.371045465 87.0
66.375969321 74.0
66.380893177 73.0
66.385817033 73.0
66.390740889 95.0
66.395664745 86.0
66.400588601 78.0
66.405512457 102.0
66.410436313 78.0
66.415360169 82.0
66.420284025 88.0
66.425207881 93.0
66.430131737 80.0
66.435055593 75.0
66.439979449 90.0
66.444903305 77.0
66.449827161 96.0
66.454751017 83.0
66.459674873 107.0
66.464598729 97.0
66.469522585 89.0
66.474446441 80.0
66.479370297 78.0
66.484294153 73.0
66.489218009 89.0
66.494141865 95.0
66.499065721 90.0
66.503989577 93.0
66.508913433 91.0
66.513837289 110.0
66.518761145 76.0
66.523685001 100.0
66.528608857 96.0
66.533532713 88.0
66.538456569 98.0
66.543380425 81.0
66.548304281 84.0
66.553228137 113.0
66.558151993 81.0
66.563075849 87.0
66.567999705 98.0
66.572923561 86.0
66.577847417 85.0
66.582771273 84.0
66.587695129 101.0
66.592618985 104.0
66.597542841 100.0
66.602466697 103.0
66.607390553 82.0
66.612314409 96.0
66.617238265 96.0
66.622162121 106.0
66.627085977 110.0
66.632009833 104.0
66.636933689 107.0
66.641857545 102.0
66.646781401 112.0
66.651705257 110.0
66.656629113 101.0
66.661552969 102.0
66.666476826 107.0
66.671400682 103.0
66.676324538 99.0
66.681248394 93.0
66.686172250 108.0
66.691096106 96.0
66.696019962 114.0
66.700943818 104.0
66.705867674 102.0
66.710791530 100.0
66.715715386 115.0
66.720639242 120.0
66.725563098 109.0
66.730486954 104.0
66.735410810 84.0
66.740334666 95.0
66.745258522 126.0
66.750182378 119.0
66.755106234 120.0
66.760030090 109.0
66.764953946 104.0
66.769877802 119.0
66.774801658 106.0
66.779725514 126.0
66.784649370 118.0
66.789573226 117.0
66.794497082 103.0
66.799420938 113.0
66.804344794 125.0
66.809268650 102.0
66.814192506 117.0
66.819116362 128.0
66.824040218 105.0
66.828964074 112.0
66.833887930 102.0
66.838811786 101.0
66.843735642 109.0
66.848659498 110.0
66.853583354 124.0
66.858507210 130.0
66.863431066 138.0
66.868354922 124.0
66.873278778 129.0
66.878202634 105.0
66.883126490 132.0
66.888050346 128.0
66.892974202 122.0
66.897898058 125.0
66.902821914 115.0
66.907745770 119.0
66.912669626 143.0
66.917593482 127.0
66.922517338 131.0
66.927441194 126.0
66.932365050 126.0
66.937288906 124.0
66.942212762 122.0
66.947136618 138.0
66.952060474 123.0
66.956984330 141.0
66.961908186 114.0
66.966832042 135.0
66.971755898 158.0
66.976679754 137.0
66.981603610 140.0
66.986527466 136.0
66.991451322 134.0
66.996375178 139.0
67.001299034 126.0
67.006222890 133.0
67.011146746 128.0
67.016070602 140.0
67.020994458 123.0
67.025918314 151.0
67.030842170 147.0
67.035766026 153.0
67.040689883 153.0
67.045613739 136.0
67.050537595 132.0
67.055461451 142.0
67.060385307 136.0
67.065309163 155.0
67.070233019 156.0
67.075156875 149.0
67.080080731 161.0
67.085004587 166.0
67.089928443 136.0
67.094852299 155.0
67.099776155 164.0
67.104700011 151.0
67.109623867 146.0
67.114547723 152.0
67.119471579 150.0
67.124395435 149.0
67.129319291 132.0
67.134243147 158.0
67.139167003 169.0
67.144090859 174.0
67.149014715 147.0
67.153938571 150.0
67.158862427 161.0
67.163786283 149.0
67.168710139 184.0
67.173633995 155.0
67.178557851 165.0
67.183481707 159.0
67.188405563 161.0
67.193329419 166.0
67.198253275 131.0
67.203177131 173.0
67.208100987 189.0
67.213024843 195.0
67.217948699 170.0
67.222872555 167.0
67.227796411 184.0
67.232720267 172.0
67.237644123 207.0
67.242567979 164.0
67.247491835 178.0
67.252415691 183.0
67.257339547 162.0
67.262263403 198.0
67.267187259 184.0
67.272111115 172.0
67.277034971 189.0
67.281958827 192.0
67.286882683 201.0
67.291806539 193.0
67.296730395 178.0
67.301654251 261.0
67.306578107 170.0
67.311501963 206.0
67.316425819 197.0
67.321349675 190.0
67.326273531 180.0
67.331197387 178.0
67.336121243 209.0
67.341045099 182.0
67.345968955 187.0
67.350892811 188.0
67.355816667 217.0
67.360740523 210.0
67.365664379 195.0
67.370588235 261.0
67.375512091 272.0
67.380435947 255.0
67.385359803 268.0
67.390283659 199.0
67.395207515 196.0
67.400131371 297.0
67.405055227 295.0
67.409979084 272.0
67.414902940 277.0
67.419826796 275.0
67.424750652 259.0
67.429674508 210.0
67.434598364 279.0
67.439522220 283.0
67.444446076 282.0
67.449369932 294.0
67.454293788 255.0
67.459217644 283.0
67.464141500 281.0
67.469065356 271.0
67.473989212 322.0
67.478913068 304.0
67.483836924 318.0
67.488760780 291.0
67.493684636 315.0
67.498608492 321.0
67.503532348 309.0
67.508456204 342.0
67.513380060 303.0
67.518303916 370.0
67.523227772 335.0
67.528151628 376.0
67.533075484 341.0
67.537999340 331.0
67.542923196 387.0
67.547847052 354.0
67.552770908 340.0
67.557694764 367.0
67.562618620 391.0
67.567542476 369.0
67.572466332 395.0
67.577390188 372.0
67.582314044 361.0
67.587237900 428.0
67.592161756 439.0
67.597085612 411.0
67.602009468 414.0
67.606933324 413.0
67.611857180 416.0
67.616781036 425.0
67.621704892 459.0
67.626628748 450.0
67.631552604 488.0
67.636476460 499.0
67.641400316 471.0
67.646324172 499.0
67.651248028 508.0
67.656171884 533.0
67.661095740 551.0
67.666019596 575.0
67.670943452 569.0
67.675867308 570.0
67.680791164 622.0
67.685715020 645.0
67.690638876 708.0
67.695562732 677.0
67.700486588 752.0
67.705410444 805.0
67.710334300 837.0
67.715258156 890.0
67.720182012 958.0
67.725105868 892.0
67.730029724 1014.0
67.734953580 1044.0
67.739877436 1094.0
67.744801292 1110.0
67.749725148 1155.0
67.754649004 1268.0
67.759572860 1300.0
67.764496716 1327.0
67.769420572 1349.0
67.774344428 1438.0
67.779268285 1399.0
67.784192141 1422.0
67.789115997 1476.0
67.794039853 1541.0
67.798963709 1512.0
67.803887565 1480.0
67.808811421 1504.0
67.813735277 1483.0
67.818659133 1539.0
67.823582989 1510.0
67.828506845 1536.0
67.833430701 1478.0
67.838354557 1488.0
67.843278413 1443.0
67.848202269 1447.0
67.853126125 1438.0
67.858049981 1412.0
67.862973837 1428.0
67.867897693 1418.0
67.872821549 1420.0
67.877745405 1449.0
67.882669261 1471.0
67.887593117 1528.0
67.892516973 1463.0
67.897440829 1486.0
67.902364685 1601.0
67.907288541 1669.0
67.912212397 1621.0
67.917136253 1668.0
67.922060109 1744.0
67.926983965 1936.0
67.931907821 1884.0
67.936831677 1932.0
67.941755533 2028.0
67.946679389 2154.0
67.951603245 2309.0
67.956527101 2311.0
67.961450957 2451.0
67.966374813 2648.0
67.971298669 2722.0
67.976222525 2982.0
67.981146381 3170.0
67.986070237 3368.0
67.990994093 3671.0
67.995917949 3926.0
68.000841805 4234.0
68.005765661 4666.0
68.010689517 5014.0
68.015613373 5630.0
68.020537229 6092.0
68.025461085 6816.0
68.030384941 7622.0
68.035308797 8636.0
68.040232653 9635.0
68.045156509 11077.0
68.050080365 12834.0
68.055004221 15333.0
68.059928077 18582.0
68.064851933 23103.0
68.069775789 29388.0
68.074699645 39097.0
68.079623501 53153.0
68.084547357 72286.0
68.089471213 94526.0
68.094395069 116503.0
68.099318925 133052.0
68.104242781 145758.0
68.109166637 153832.0
68.114090493 157439.0
68.119014349 158453.0
68.123938205 155964.0
68.128862061 146105.0
68.133785917 132156.0
68.138709773 110304.0
68.143633629 88476.0
68.148557486 68183.0
68.153481342 53223.0
68.158405198 42230.0
68.163329054 33208.0
68.168252910 27104.0
68.173176766 22105.0
68.178100622 18210.0
68.183024478 15450.0
68.187948334 13306.0
68.192872190 11649.0
68.197796046 10234.0
68.202719902 9520.0
68.207643758 8878.0
68.212567614 8415.0
68.217491470 8204.0
68.222415326 8061.0
68.227339182 8387.0
68.232263038 8475.0
68.237186894 8917.0
68.242110750 9772.0
68.247034606 10983.0
68.251958462 12553.0
68.256882318 14692.0
68.261806174 18100.0
68.266730030 22854.0
68.271653886 29173.0
68.276577742 37508.0
68.281501598 46859.0
68.286425454 56970.0
68.291349310 65265.0
68.296273166 72028.0
68.301197022 76347.0
68.306120878 79568.0
68.311044734 80000.0
68.315968590 78398.0
68.320892446 75193.0
68.325816302 67295.0
68.330740158 59644.0
68.335664014 48909.0
68.340587870 40334.0
68.345511726 31794.0
68.350435582 25342.0
68.355359438 20021.0
68.360283294 16082.0
68.365207150 13084.0
68.370131006 11137.0
68.375054862 9080.0
68.379978718 7818.0
68.384902574 6567.0
68.389826430 5914.0
68.394750286 5121.0
68.399674142 4676.0
68.404597998 4337.0
68.409521854 4012.0
68.414445710 3501.0
68.419369566 3327.0
68.424293422 3021.0
68.429217278 2844.0
68.434141134 2652.0
68.439064990 2461.0
68.443988846 2368.0
68.448912702 2322.0
68.453836558 2188.0
68.458760414 1968.0
68.463684270 1963.0
68.468608126 1903.0
68.473531982 1858.0
68.478455838 1767.0
68.483379694 1675.0
68.488303550 1697.0
68.493227406 1570.0
68.498151262 1612.0
68.503075118 1409.0
68.507998974 1445.0
68.512922830 1366.0
68.517846687 1327.0
68.522770543 1255.0
68.527694399 1234.0
68.532618255 1214.0
68.537542111 1185.0
68.542465967 1154.0
68.547389823 1035.0
68.552313679 1091.0
68.557237535 1055.0
68.562161391 1031.0
68.567085247 993.0
68.572009103 1029.0
68.576932959 915.0
68.581856815 914.0
68.586780671 911.0
68.591704527 927.0
68.596628383 873.0
68.601552239 872.0
68.606476095 894.0
68.611399951 828.0
68.616323807 739.0
68.621247663 801.0
68.626171519 779.0
68.631095375 776.0
68.636019231 769.0
68.640943087 736.0
68.645866943 688.0
68.650790799 724.0
68.655714655 675.0
68.660638511 690.0
68.665562367 661.0
68.670486223 681.0
68.675410079 659.0
68.680333935 640.0
68.685257791 652.0
68.690181647 639.0
68.695105503 611.0
68.700029359 579.0
68.704953215 585.0
68.709877071 584.0
68.714800927 596.0
68.719724783 571.0
68.724648639 562.0
68.729572495 551.0
68.734496351 539.0
68.739420207 559.0
68.744344063 548.0
68.749267919 500.0
68.754191775 525.0
68.759115631 522.0
68.764039487 529.0
68.768963343 499.0
68.773887199 473.0
68.778811055 453.0
68.783734911 481.0
68.788658767 456.0
68.793582623 496.0
68.798506479 442.0
68.803430335 421.0
68.808354191 408.0
68.813278047 411.0
68.818201903 418.0
68.823125759 427.0
68.828049615 426.0
68.832973471 431.0
68.837897327 397.0
68.842821183 382.0
68.847745039 416.0
68.852668895 396.0
68.857592751 394.0
68.862516607 378.0
68.867440463 400.0
68.872364319 373.0
68.877288175 417.0
68.882212031 361.0
68.887135887 355.0
68.892059744 340.0
68.896983600 337.0
68.901907456 321.0
68.906831312 366.0
68.911755168 326.0
68.916679024 349.0
68.921602880 318.0
68.926526736 345.0
68.931450592 340.0
68.936374448 321.0
68.941298304 338.0
68.946222160 316.0
68.951146016 354.0
68.956069872 332.0
68.960993728 338.0
68.965917584 326.0
68.970841440 356.0
68.975765296 282.0
68.980689152 310.0
68.985613008 347.0
68.990536864 318.0
68.995460720 318.0
69.000384576 300.0
69.005308432 318.0
69.010232288 298.0
69.015156144 313.0
69.020080000 265.0
69.025003856 298.0
69.029927712 294.0
69.034851568 302.0
69.039775424 298.0
69.044699280 292.0
69.049623136 275.0
69.054546992 218.0
69.059470848 281.0
69.064394704 200.0
69.069318560 277.0
69.074242416 211.0
69.079166272 271.0
69.084090128 213.0
69.089013984 278.0
69.093937840 273.0
69.098861696 212.0
69.103785552 270.0
69.108709408 267.0
69.113633264 259.0
69.118557120 203.0
69.123480976 260.0
69.128404832 220.0
69.133328688 220.0
69.138252544 218.0
69.143176400 185.0
69.148100256 209.0
69.153024112 199.0
69.157947968 198.0
69.162871824 209.0
69.167795680 201.0
69.172719536 192.0
69.177643392 186.0
69.182567248 178.0
69.187491104 190.0
69.192414960 212.0
69.197338816 174.0
69.202262672 209.0
69.207186528 186.0
69.212110384 175.0
69.217034240 185.0
69.221958096 177.0
69.226881952 200.0
69.231805808 166.0
69.236729664 165.0
69.241653520 197.0
69.246577376 180.0
69.251501232 183.0
69.256425088 186.0
69.261348945 167.0
69.266272801 174.0
69.271196657 174.0
69.276120513 163.0
69.281044369 167.0
69.285968225 165.0
69.290892081 160.0
69.295815937 171.0
69.300739793 160.0
69.305663649 160.0
69.310587505 139.0
69.315511361 163.0
69.320435217 150.0
69.325359073 150.0
69.330282929 152.0
69.335206785 172.0
69.340130641 156.0
69.345054497 147.0
69.349978353 140.0
69.354902209 165.0
69.359826065 130.0
69.364749921 163.0
69.369673777 128.0
69.374597633 153.0
69.379521489 147.0
69.384445345 148.0
69.389369201 157.0
69.394293057 137.0
69.399216913 132.0
69.404140769 151.0
69.409064625 152.0
69.413988481 147.0
69.418912337 133.0
69.423836193 140.0
69.428760049 150.0
69.433683905 128.0
69.438607761 128.0
69.443531617 141.0
69.448455473 129.0
69.453379329 143.0
69.458303185 136.0
69.463227041 124.0
69.468150897 123.0
69.473074753 126.0
69.477998609 129.0
69.482922465 126.0
69.487846321 148.0
69.492770177 125.0
69.497694033 140.0
69.502617889 121.0
69.507541745 113.0
69.512465601 110.0
69.517389457 117.0
69.522313313 123.0
69.527237169 103.0
69.532161025 112.0
69.537084881 122.0
69.542008737 111.0
69.546932593 121.0
69.551856449 118.0
69.556780305 101.0
69.561704161 108.0
69.566628017 106.0
69.571551873 107.0
69.576475729 116.0
69.581399585 95.0
69.586323441 123.0
69.591247297 93.0
69.596171153 109.0
69.601095009 102.0
69.606018865 96.0
69.610942721 109.0
69.615866577 107.0
69.620790433 98.0
69.625714289 104.0
69.630638146 100.0
69.635562002 105.0
69.640485858 112.0
69.645409714 90.0
69.650333570 88.0
69.655257426 105.0
69.660181282 100.0
69.665105138 105.0
69.670028994 93.0
69.674952850 90.0
69.679876706 69.0
69.684800562 89.0
69.689724418 87.0
69.694648274 104.0
69.699572130 115.0
69.704495986 96.0
69.709419842 87.0
69.714343698 81.0
69.719267554 90.0
69.724191410 104.0
69.729115266 87.0
69.734039122 97.0
69.738962978 77.0
69.743886834 76.0
69.748810690 82.0
69.753734546 87.0
69.758658402 92.0
69.763582258 92.0
69.768506114 85.0
69.773429970 83.0
69.778353826 65.0
69.783277682 84.0
69.788201538 67.0
69.793125394 74.0
69.798049250 70.0
69.802973106 83.0
69.807896962 91.0
69.812820818 80.0
69.817744674 71.0
69.822668530 92.0
69.827592386 81.0
69.832516242 77.0
69.837440098 97.0
69.842363954 87.0
69.847287810 68.0
69.852211666 71.0
69.857135522 85.0
69.862059378 85.0
69.866983234 76.0
69.871907090 68.0
69.876830946 77.0
69.881754802 71.0
69.886678658 57.0
69.891602514 60.0
69.896526370 74.0
69.901450226 72.0
69.906374082 75.0
69.911297938 62.0
69.916221794 78.0
69.921145650 75.0
69.926069506 61.0
69.930993362 72.0
69.935917218 77.0
69.940841074 66.0
69.945764930 56.0
69.950688786 65.0
69.955612642 74.0
69.960536498 73.0
69.965460354 72.0
69.970384210 57.0
69.975308066 53.0
69.980231922 78.0
69.985155778 57.0
69.990079634 54.0
69.995003490 82.0
69.999927347 67.0
70.004851203 61.0
70.009775059 72.0
70.014698915 66.0
70.019622771 66.0
70.024546627 62.0
70.029470483 62.0
70.034394339 55.0
70.039318195 64.0
70.044242051 59.0
70.049165907 63.0
70.054089763 63.0
70.059013619 69.0
70.063937475 52.0
70.068861331 61.0
70.073785187 62.0
70.078709043 54.0
70.083632899 88.0
70.088556755 66.0
70.093480611 66.0
70.098404467 60.0
70.103328323 54.0
70.108252179 56.0
70.113176035 61.0
70.118099891 58.0
70.123023747 47.0
70.127947603 54.0
70.132871459 44.0
70.137795315 42.0
70.142719171 49.0
70.147643027 44.0
70.152566883 45.0
70.157490739 42.0
70.162414595 59.0
70.167338451 56.0
70.172262307 29.0
70.177186163 47.0
70.182110019 55.0
70.187033875 55.0
70.191957731 46.0
70.196881587 40.0
70.201805443 45.0
70.206729299 43.0
70.211653155 48.0
70.216577011 43.0
70.221500867 56.0
70.226424723 43.0
70.231348579 42.0
70.236272435 50.0
70.241196291 42.0
70.246120147 41.0
70.251044003 48.0
70.255967859 54.0
70.260891715 55.0
70.265815571 43.0
70.270739427 37.0
70.275663283 42.0
70.280587139 52.0
70.285510995 41.0
70.290434851 44.0
70.295358707 33.0
70.300282563 36.0
70.305206419 42.0
70.310130275 46.0
70.315054131 43.0
70.319977987 52.0
70.324901843 48.0
70.329825699 56.0
70.334749555 34.0
70.339673411 56.0
70.344597267 40.0
70.349521123 36.0
70.354444979 47.0
70.359368835 33.0
70.364292691 41.0
70.369216548 55.0
70.374140404 46.0
70.379064260 45.0
70.383988116 48.0
70.388911972 39.0
70.393835828 47.0
70.398759684 55.0
70.403683540 37.0
70.408607396 33.0
70.413531252 46.0
70.418455108 37.0
70.423378964 44.0
70.428302820 26.0
70.433226676 34.0
70.438150532 30.0
70.443074388 35.0
70.447998244 47.0
70.452922100 37.0
70.457845956 32.0
70.462769812 31.0
70.467693668 35.0
70.472617524 40.0
70.477541380 41.0
70.482465236 38.0
70.487389092 32.0
70.492312948 49.0
70.497236804 46.0
70.502160660 39.0
70.507084516 48.0
70.512008372 36.0
70.516932228 37.0
70.521856084 37.0
70.526779940 36.0
70.531703796 49.0
70.536627652 42.0
70.541551508 40.0
70.546475364 30.0
70.551399220 30.0
70.556323076 34.0
70.561246932 39.0
70.566170788 36.0
70.571094644 30.0
70.576018500 49.0
70.580942356 25.0
70.585866212 33.0
70.590790068 48.0
70.595713924 36.0
70.600637780 38.0
70.605561636 33.0
70.610485492 32.0
70.615409348 37.0
70.620333204 31.0
70.625257060 47.0
70.630180916 39.0
70.635104772 39.0
70.640028628 35.0
70.644952484 31.0
70.649876340 33.0
70.654800196 40.0
70.659724052 34.0
70.664647908 34.0
70.669571764 42.0
70.674495620 31.0
70.679419476 39.0
70.684343332 30.0
70.689267188 33.0
70.694191044 35.0
70.699114900 26.0
70.704038756 27.0
70.708962612 35.0
70.713886468 38.0
70.718810324 25.0
70.723734180 40.0
70.728658036 36.0
70.733581892 35.0
70.738505748 33.0
70.743429605 32.0
70.748353461 37.0
70.753277317 32.0
70.758201173 40.0
70.763125029 34.0
70.768048885 33.0
70.772972741 25.0
70.777896597 33.0
70.782820453 31.0
70.787744309 31.0
70.792668165 27.0
70.797592021 30.0
70.802515877 27.0
70.807439733 37.0
70.812363589 33.0
70.817287445 35.0
70.822211301 24.0
70.827135157 27.0
70.832059013 27.0
70.836982869 22.0
70.841906725 20.0
70.846830581 31.0
70.851754437 33.0
70.856678293 31.0
70.861602149 21.0
70.866526005 24.0
70.871449861 30.0
70.876373717 39.0
70.881297573 39.0
70.886221429 29.0
70.891145285 37.0
70.896069141 44.0
70.900992997 37.0
70.905916853 28.0
70.910840709 26.0
70.915764565 27.0
70.920688421 34.0
70.925612277 38.0
70.930536133 32.0
70.935459989 32.0
70.940383845 27.0
70.945307701 30.0
70.950231557 28.0
70.955155413 20.0
70.960079269 22.0
70.965003125 37.0
70.969926981 33.0
70.974850837 35.0
70.979774693 23.0
70.984698549 27.0
70.989622405 29.0
70.994546261 24.0
70.999470117 26.0
71.004393973 38.0
71.009317829 36.0
71.014241685 44.0
71.019165541 23.0
71.024089397 29.0
71.029013253 18.0
71.033937109 32.0
71.038860965 39.0
71.043784821 20.0
71.048708677 33.0
71.053632533 23.0
71.058556389 26.0
71.063480245 19.0
71.068404101 24.0
71.073327957 26.0
71.078251813 22.0
71.083175669 23.0
71.088099525 34.0
71.093023381 37.0
71.097947237 24.0
71.102871093 41.0
71.107794949 25.0
71.112718806 26.0
71.117642662 26.0
71.122566518 32.0
71.127490374 31.0
71.132414230 27.0
71.137338086 32.0
71.142261942 28.0
71.147185798 29.0
71.152109654 26.0
71.157033510 20.0
71.161957366 28.0
71.166881222 26.0
71.171805078 31.0
71.176728934 30.0
71.181652790 26.0
71.186576646 27.0
71.191500502 28.0
71.196424358 25.0
71.201348214 30.0
71.206272070 22.0
71.211195926 29.0
71.216119782 27.0
71.221043638 23.0
71.225967494 36.0
71.230891350 22.0
71.235815206 24.0
71.240739062 32.0
71.245662918 23.0
71.250586774 20.0
71.255510630 27.0
71.260434486 18.0
71.265358342 25.0
71.270282198 20.0
71.275206054 32.0
71.280129910 28.0
71.285053766 22.0
71.289977622 25.0
71.294901478 20.0
71.299825334 37.0
71.304749190 25.0
71.309673046 34.0
71.314596902 21.0
71.319520758 29.0
71.324444614 25.0
71.329368470 25.0
71.334292326 30.0
71.339216182 29.0
71.344140038 29.0
71.349063894 26.0
71.353987750 27.0
71.358911606 26.0
71.363835462 19.0
71.368759318 21.0
71.373683174 29.0
71.378607030 17.0
71.383530886 20.0
71.388454742 24.0
71.393378598 24.0
71.398302454 24.0
71.403226310 29.0
71.408150166 21.0
71.413074022 24.0
71.417997878 20.0
71.422921734 26.0
71.427845590 27.0
71.432769446 22.0
71.437693302 29.0
71.442617158 24.0
71.447541014 33.0
71.452464870 24.0
71.457388726 29.0
71.462312582 30.0
71.467236438 23.0
71.472160294 31.0
71.477084150 22.0
71.482008007 28.0
71.486931863 24.0
71.491855719 30.0
71.496779575 19.0
71.501703431 19.0
71.506627287 18.0
71.511551143 17.0
71.516474999 26.0
71.521398855 26.0
71.526322711 15.0
71.531246567 16.0
71.536170423 22.0
71.541094279 27.0
71.546018135 25.0
71.550941991 15.0
71.555865847 26.0
71.560789703 21.0
71.565713559 14.0
71.570637415 24.0
71.575561271 19.0
71.580485127 20.0
71.585408983 18.0
71.590332839 18.0
71.595256695 24.0
71.600180551 33.0
71.605104407 20.0
71.610028263 25.0
71.614952119 21.0
71.619875975 28.0
71.624799831 22.0
71.629723687 24.0
71.634647543 18.0
71.639571399 20.0
71.644495255 20.0
71.649419111 22.0
71.654342967 29.0
71.659266823 26.0
71.664190679 13.0
71.669114535 28.0
71.674038391 18.0
71.678962247 26.0
71.683886103 24.0
71.688809959 21.0
71.693733815 26.0
71.698657671 23.0
71.703581527 23.0
71.708505383 17.0
71.713429239 30.0
71.718353095 21.0
71.723276951 20.0
71.728200807 26.0
71.733124663 17.0
71.738048519 20.0
71.742972375 25.0
71.747896231 28.0
71.752820087 27.0
71.757743943 17.0
71.762667799 29.0
71.767591655 21.0
71.772515511 24.0
71.777439367 18.0
71.782363223 23.0
71.787287079 28.0
71.792210935 21.0
71.797134791 28.0
71.802058647 20.0
71.806982503 15.0
71.811906359 22.0
71.816830215 28.0
71.821754071 17.0
71.826677927 20.0
71.831601783 25.0
71.836525639 23.0
71.841449495 17.0
71.846373351 25.0
71.851297208 17.0
71.856221064 22.0
71.861144920 24.0
71.866068776 29.0
71.870992632 23.0
71.875916488 19.0
71.880840344 29.0
71.885764200 22.0
71.890688056 24.0
71.895611912 15.0
71.900535768 18.0
71.905459624 14.0
71.910383480 25.0
71.915307336 23.0
71.920231192 18.0
71.925155048 14.0
71.930078904 24.0
71.935002760 20.0
71.939926616 18.0
71.944850472 17.0
71.949774328 27.0
71.954698184 24.0
71.959622040 29.0
71.964545896 16.0
71.969469752 20.0
71.974393608 30.0
71.979317464 13.0
71.984241320 23.0
71.989165176 22.0
71.994089032 23.0
71.999012888 20.0
72.003936744 15.0
72.008860600 32.0
72.013784456 24.0
72.018708312 18.0
72.023632168 16.0
72.028556024 22.0
72.033479880 15.0
72.038403736 14.0
72.043327592 23.0
72.048251448 14.0
72.053175304 25.0
72.058099160 21.0
72.063023016 21.0
72.067946872 18.0
72.072870728 18.0
72.077794584 16.0
72.082718440 21.0
72.087642296 24.0
72.092566152 20.0
72.097490008 20.0
72.102413864 29.0
72.107337720 20.0
72.112261576 32.0
72.117185432 21.0
72.122109288 22.0
72.127033144 21.0
72.131957000 17.0
72.136880856 13.0
72.141804712 23.0
72.146728568 21.0
72.151652424 18.0
72.156576280 22.0
72.161500136 21.0
72.166423992 23.0
72.171347848 24.0
72.176271704 24.0
72.181195560 18.0
72.186119416 18.0
72.191043272 16.0
72.195967128 29.0
72.200890984 11.0
72.205814840 16.0
72.210738696 16.0
72.215662552 9.0
72.220586409 19.0
72.225510265 18.0
72.230434121 21.0
72.235357977 15.0
72.240281833 17.0
72.245205689 30.0
72.250129545 17.0
72.255053401 21.0
72.259977257 16.0
72.264901113 25.0
72.269824969 27.0
72.274748825 22.0
72.279672681 17.0
72.284596537 12.0
72.289520393 16.0
72.294444249 17.0
72.299368105 21.0
72.304291961 15.0
72.309215817 14.0
72.314139673 23.0
72.319063529 21.0
72.323987385 16.0
72.328911241 15.0
72.333835097 14.0
72.338758953 17.0
72.343682809 22.0
72.348606665 25.0
72.353530521 18.0
72.358454377 23.0
72.363378233 21.0
72.368302089 11.0
72.373225945 14.0
72.378149801 34.0
72.383073657 15.0
72.387997513 18.0
72.392921369 22.0
72.397845225 24.0
72.402769081 15.0
72.407692937 23.0
72.412616793 14.0
72.417540649 12.0
72.422464505 20.0
72.427388361 24.0
72.432312217 16.0
72.437236073 21.0
72.442159929 23.0
72.447083785 19.0
72.452007641 16.0
72.456931497 17.0
72.461855353 22.0
72.466779209 18.0
72.471703065 26.0
72.476626921 26.0
72.481550777 9.0
72.486474633 19.0
72.491398489 24.0
72.496322345 24.0
72.501246201 24.0
72.506170057 15.0
72.511093913 20.0
72.516017769 22.0
72.520941625 13.0
72.525865481 16.0
72.530789337 22.0
72.535713193 17.0
72.540637049 15.0
72.545560905 13.0
72.550484761 26.0
72.555408617 19.0
72.560332473 16.0
72.565256329 14.0
72.570180185 19.0
72.575104041 9.0
72.580027897 21.0
72.584951753 22.0
72.589875609 15.0
72.594799466 12.0
72.599723322 12.0
72.604647178 18.0
72.609571034 17.0
72.614494890 15.0
72.619418746 24.0
72.624342602 18.0
72.629266458 14.0
72.634190314 26.0
72.639114170 21.0
72.644038026 20.0
72.648961882 23.0
72.653885738 21.0
72.658809594 16.0
72.663733450 25.0
72.668657306 20.0
72.673581162 13.0
72.678505018 15.0
72.683428874 9.0
72.688352730 15.0
72.693276586 21.0
72.698200442 14.0
72.703124298 22.0
72.708048154 26.0
72.712972010 19.0
72.717895866 20.0
72.722819722 21.0
72.727743578 25.0
72.732667434 16.0
72.737591290 16.0
72.742515146 24.0
72.747439002 28.0
72.752362858 12.0
72.757286714 19.0
72.762210570 16.0
72.767134426 16.0
72.772058282 15.0
72.776982138 17.0
72.781905994 23.0
72.786829850 10.0
72.791753706 21.0
72.796677562 23.0
72.801601418 23.0
72.806525274 15.0
72.811449130 18.0
72.816372986 17.0
72.821296842 16.0
72.826220698 17.0
72.831144554 18.0
72.836068410 17.0
72.840992266 12.0
72.845916122 15.0
72.850839978 11.0
72.855763834 15.0
72.860687690 18.0
72.865611546 18.0
72.870535402 11.0
72.875459258 24.0
72.880383114 16.0
72.885306970 16.0
72.890230826 12.0
72.895154682 17.0
72.900078538 23.0
72.905002394 18.0
72.909926250 19.0
72.914850106 18.0
72.919773962 22.0
72.924697818 19.0
72.929621674 21.0
72.934545530 13.0
72.939469386 17.0
72.944393242 21.0
72.949317098 19.0
72.954240954 15.0
72.959164810 22.0
72.964088667 15.0
72.969012523 19.0
72.973936379 19.0
72.978860235 15.0
72.983784091 14.0
72.988707947 24.0
72.993631803 19.0
72.998555659 21.0
73.003479515 18.0
73.008403371 18.0
73.013327227 19.0
73.018251083 16.0
73.023174939 25.0
73.028098795 12.0
73.033022651 15.0
73.037946507 16.0
73.042870363 14.0
73.047794219 21.0
73.052718075 19.0
73.057641931 14.0
73.062565787 21.0
73.067489643 11.0
73.072413499 14.0
73.077337355 15.0
73.082261211 14.0
73.087185067 15.0
73.092108923 16.0
73.097032779 21.0
73.101956635 20.0
73.106880491 20.0
73.111804347 23.0
73.116728203 13.0
73.121652059 21.0
73.126575915 17.0
73.131499771 15.0
73.136423627 17.0
73.141347483 12.0
73.146271339 27.0
73.151195195 15.0
73.156119051 22.0
73.161042907 19.0
73.165966763 21.0
73.170890619 21.0
73.175814475 21.0
73.180738331 20.0
73.185662187 18.0
73.190586043 15.0
73.195509899 19.0
73.200433755 16.0
73.205357611 15.0
73.210281467 12.0
73.215205323 13.0
73.220129179 19.0
73.225053035 23.0
73.229976891 20.0
73.234900747 14.0
73.239824603 14.0
73.244748459 14.0
73.249672315 14.0
73.254596171 15.0
73.259520027 15.0
73.264443883 10.0
73.269367739 10.0
73.274291595 19.0
73.279215451 17.0
73.284139307 16.0
73.289063163 21.0
73.293987019 15.0
73.298910875 19.0
73.303834731 21.0
73.308758587 10.0
73.313682443 18.0
73.318606299 17.0
73.323530155 18.0
73.328454011 16.0
73.333377868 13.0
73.338301724 11.0
73.343225580 16.0
73.348149436 22.0
73.353073292 14.0
73.357997148 23.0
73.362921004 16.0
73.367844860 16.0
73.372768716 13.0
73.377692572 20.0
73.382616428 22.0
73.387540284 18.0
73.392464140 16.0
73.397387996 22.0
73.402311852 12.0
73.407235708 18.0
73.412159564 7.0
73.417083420 15.0
73.422007276 20.0
73.426931132 16.0
73.431854988 22.0
73.436778844 6.0
73.441702700 22.0
73.446626556 21.0
73.451550412 19.0
73.456474268 21.0
73.461398124 16.0
73.466321980 15.0
73.471245836 25.0
73.476169692 19.0
73.481093548 13.0
73.486017404 12.0
73.490941260 10.0
73.495865116 16.0
73.500788972 11.0
73.505712828 24.0
73.510636684 11.0
73.515560540 20.0
73.520484396 10.0
73.525408252 28.0
73.530332108 20.0
73.535255964 20.0
73.540179820 11.0
73.545103676 23.0
73.550027532 19.0
73.554951388 17.0
73.559875244 16.0
73.564799100 16.0
73.569722956 9.0
73.574646812 16.0
73.579570668 8.0
73.584494524 14.0
73.589418380 13.0
73.594342236 15.0
73.599266092 14.0
73.604189948 14.0
73.609113804 17.0
73.614037660 6.0
73.618961516 20.0
73.623885372 15.0
73.628809228 16.0
73.633733084 16.0
73.638656940 18.0
73.643580796 18.0
73.648504652 18.0
73.653428508 21.0
73.658352364 14.0
73.663276220 21.0
73.668200076 12.0
73.673123932 17.0
73.678047788 27.0
73.682971644 19.0
73.687895500 18.0
73.692819356 17.0
73.697743212 20.0
73.702667069 16.0
73.707590925 20.0
73.712514781 19.0
73.717438637 17.0
73.722362493 10.0
73.727286349 14.0
73.732210205 15.0
73.737134061 15.0
73.742057917 21.0
73.746981773 13.0
73.751905629 12.0
73.756829485 15.0
73.761753341 15.0
73.766677197 19.0
73.771601053 17.0
73.776524909 27.0
73.781448765 15.0
73.786372621 24.0
73.791296477 10.0
73.796220333 8.0
73.801144189 13.0
73.806068045 17.0
73.810991901 12.0
73.815915757 16.0
73.820839613 14.0
73.825763469 12.0
73.830687325 16.0
73.835611181 15.0
73.840535037 21.0
73.845458893 19.0
73.850382749 18.0
73.855306605 15.0
73.860230461 18.0
73.865154317 17.0
73.870078173 21.0
73.875002029 15.0
73.879925885 22.0
73.884849741 19.0
73.889773597 23.0
73.894697453 18.0
73.899621309 15.0
73.904545165 20.0
73.909469021 20.0
73.914392877 14.0
73.919316733 13.0
73.924240589 14.0
73.929164445 18.0
73.934088301 10.0
73.939012157 16.0
73.943936013 11.0
73.948859869 23.0
73.953783725 16.0
73.958707581 9.0
73.963631437 23.0
73.968555293 15.0
73.973479149 13.0
73.978403005 17.0
73.983326861 10.0
73.988250717 21.0
73.993174573 18.0
73.998098429 13.0
74.003022285 15.0
74.007946141 15.0
74.012869997 15.0
74.017793853 14.0
74.022717709 17.0
74.027641565 17.0
74.032565421 13.0
74.037489277 10.0
74.042413133 15.0
74.047336989 14.0
74.052260845 22.0
74.057184701 16.0
74.062108557 10.0
74.067032413 14.0
74.071956270 18.0
74.076880126 12.0
74.081803982 14.0
74.086727838 16.0
74.091651694 19.0
74.096575550 18.0
74.101499406 19.0
74.106423262 10.0
74.111347118 17.0
74.116270974 8.0
74.121194830 18.0
74.126118686 18.0
74.131042542 17.0
74.135966398 20.0
74.140890254 14.0
74.145814110 21.0
74.150737966 16.0
74.155661822 10.0
74.160585678 18.0
74.165509534 15.0
74.170433390 13.0
74.175357246 21.0
74.180281102 19.0
74.185204958 18.0
74.190128814 15.0
74.195052670 16.0
74.199976526 19.0
74.204900382 14.0
74.209824238 22.0
74.214748094 22.0
74.219671950 13.0
74.224595806 16.0
74.229519662 27.0
74.234443518 18.0
74.239367374 16.0
74.244291230 13.0
74.249215086 27.0
74.254138942 16.0
74.259062798 15.0
74.263986654 15.0
74.268910510 22.0
74.273834366 12.0
74.278758222 20.0
74.283682078 14.0
74.288605934 17.0
74.293529790 17.0
74.298453646 9.0
74.303377502 21.0
74.308301358 10.0
74.313225214 16.0
74.318149070 13.0
74.323072926 14.0
74.327996782 19.0
74.332920638 14.0
74.337844494 6.0
74.342768350 17.0
74.347692206 9.0
74.352616062 11.0
74.357539918 14.0
74.362463774 14.0
74.367387630 10.0
74.372311486 10.0
74.377235342 22.0
74.382159198 19.0
74.387083054 17.0
74.392006910 25.0
74.396930766 15.0
74.401854622 15.0
74.406778478 17.0
74.411702334 13.0
74.416626190 24.0
74.421550046 8.0
74.426473902 14.0
74.431397758 26.0
74.436321614 13.0
74.441245470 14.0
74.446169327 14.0
74.451093183 17.0
74.456017039 13.0
74.460940895 16.0
74.465864751 11.0
74.470788607 14.0
74.475712463 20.0
74.480636319 17.0
74.485560175 23.0
74.490484031 9.0
74.495407887 14.0
74.500331743 18.0
74.505255599 22.0
74.510179455 15.0
74.515103311 12.0
74.520027167 23.0
74.524951023 16.0
74.529874879 19.0
74.534798735 20.0
74.539722591 13.0
74.544646447 13.0
74.549570303 18.0
74.554494159 15.0
74.559418015 20.0
74.564341871 8.0
74.569265727 10.0
74.574189583 16.0
74.579113439 16.0
74.584037295 16.0
74.588961151 14.0
74.593885007 11.0
74.598808863 14.0
74.603732719 12.0
74.608656575 17.0
74.613580431 16.0
74.618504287 19.0
74.623428143 21.0
74.628351999 18.0
74.633275855 20.0
74.638199711 14.0
74.643123567 15.0
74.648047423 25.0
74.652971279 23.0
74.657895135 15.0
74.662818991 16.0
74.667742847 15.0
74.672666703 15.0
74.677590559 15.0
74.682514415 17.0
74.687438271 10.0
74.692362127 11.0
74.697285983 16.0
74.702209839 14.0
74.707133695 20.0
74.712057551 12.0
74.716981407 9.0
74.721905263 9.0
74.726829119 13.0
74.731752975 16.0
74.736676831 12.0
74.741600687 15.0
74.746524543 18.0
74.751448399 13.0
74.756372255 20.0
74.761296111 10.0
74.766219967 12.0
74.771143823 15.0
74.776067679 15.0
74.780991535 14.0
74.785915391 15.0
74.790839247 13.0
74.795763103 13.0
74.800686959 15.0
74.805610815 8.0
74.810534671 15.0
74.815458528 15.0
74.820382384 14.0
74.825306240 20.0
74.830230096 10.0
74.835153952 18.0
74.840077808 12.0
74.845001664 12.0
74.849925520 15.0
74.854849376 13.0
74.859773232 13.0
74.864697088 13.0
74.869620944 13.0
74.874544800 16.0
74.879468656 14.0
74.884392512 9.0
74.889316368 10.0
74.894240224 16.0
74.899164080 14.0
74.904087936 14.0
74.909011792 8.0
74.913935648 21.0
74.918859504 14.0
74.923783360 16.0
74.928707216 19.0
74.933631072 14.0
74.938554928 14.0
74.943478784 9.0
74.948402640 13.0
74.953326496 18.0
74.958250352 11.0
74.963174208 18.0
74.968098064 13.0
74.973021920 16.0
74.977945776 11.0
74.982869632 14.0
74.987793488 12.0
74.992717344 16.0
74.997641200 14.0
