55.001861930 15.0
55.006785786 13.0
55.011709642 12.0
55.016633498 15.0
55.021557354 12.0
55.026481210 12.0
55.031405066 14.0
55.036328922 7.0
55.041252778 6.0
55.046176634 14.0
55.051100490 13.0
55.056024346 13.0
55.060948202 7.0
55.065872058 7.0
55.070795914 16.0
55.075719770 19.0
55.080643626 14.0
55.085567482 15.0
55.090491338 15.0
55.095415194 12.0
55.100339050 9.0
55.105262906 12.0
55.110186762 9.0
55.115110618 11.0
55.120034474 7.0
55.124958330 11.0
55.129882186 15.0
55.134806042 14.0
55.139729898 7.0
55.144653754 15.0
55.149577610 10.0
55.154501466 9.0
55.159425322 15.0
55.164349178 11.0
55.169273034 15.0
55.174196890 12.0
55.179120746 9.0
55.184044602 15.0
55.188968459 11.0
55.193892315 9.0
55.198816171 9.0
55.203740027 14.0
55.208663883 12.0
55.213587739 9.0
55.218511595 10.0
55.223435451 6.0
55.228359307 13.0
55.233283163 5.0
55.238207019 11.0
55.243130875 9.0
55.248054731 7.0
55.252978587 11.0
55.257902443 11.0
55.262826299 5.0
55.267750155 18.0
55.272674011 8.0
55.277597867 11.0
55.282521723 7.0
55.287445579 8.0
55.292369435 8.0
55.297293291 13.0
55.302217147 14.0
55.307141003 20.0
55.312064859 12.0
55.316988715 11.0
55.321912571 10.0
55.326836427 9.0
55.331760283 8.0
55.336684139 16.0
55.341607995 16.0
55.346531851 6.0
55.351455707 7.0
55.356379563 12.0
55.361303419 17.0
55.366227275 9.0
55.371151131 12.0
55.376074987 13.0
55.380998843 9.0
55.385922699 12.0
55.390846555 8.0
55.395770411 15.0
55.400694267 16.0
55.405618123 13.0
55.410541979 13.0
55.415465835 17.0
55.420389691 10.0
55.425313547 13.0
55.430237403 15.0
55.435161259 9.0
55.440085115 7.0
55.445008971 10.0
55.449932827 10.0
55.454856683 11.0
55.459780539 12.0
55.464704395 8.0
55.469628251 8.0
55.474552107 12.0
55.479475963 15.0
55.484399819 5.0
55.489323675 18.0
55.494247531 11.0
55.499171387 13.0
55.504095243 11.0
55.509019099 8.0
55.513942955 16.0
55.518866811 11.0
55.523790667 14.0
55.528714523 13.0
55.533638379 10.0
55.538562235 13.0
55.543486091 11.0
55.548409947 6.0
55.553333803 9.0
55.558257660 9.0
55.563181516 18.0
55.568105372 12.0
55.573029228 12.0
55.577953084 10.0
55.582876940 11.0
55.587800796 18.0
55.592724652 11.0
55.597648508 12.0
55.602572364 14.0
55.607496220 13.0
55.612420076 19.0
55.617343932 11.0
55.622267788 12.0
55.627191644 8.0
55.632115500 12.0
55.637039356 18.0
55.641963212 10.0
55.646887068 11.0
55.651810924 15.0
55.656734780 12.0
55.661658636 8.0
55.666582492 15.0
55.671506348 13.0
55.676430204 13.0
55.681354060 13.0
55.686277916 6.0
55.691201772 21.0
55.696125628 13.0
55.701049484 17.0
55.705973340 8.0
55.710897196 14.0
55.715821052 14.0
55.720744908 11.0
55.725668764 12.0
55.730592620 10.0
55.735516476 10.0
55.740440332 9.0
55.745364188 19.0
55.750288044 9.0
55.755211900 12.0
55.760135756 14.0
55.765059612 6.0
55.769983468 10.0
55.774907324 15.0
55.779831180 14.0
55.784755036 19.0
55.789678892 11.0
55.794602748 6.0
55.799526604 9.0
55.804450460 14.0
55.809374316 9.0
55.814298172 16.0
55.819222028 13.0
55.824145884 15.0
55.829069740 15.0
55.833993596 10.0
55.838917452 10.0
55.843841308 11.0
55.848765164 11.0
55.853689020 12.0
55.858612876 8.0
55.863536732 10.0
55.868460588 8.0
55.873384444 16.0
55.878308300 14.0
55.883232156 14.0
55.888156012 9.0
55.893079868 10.0
55.898003724 9.0
55.902927580 9.0
55.907851436 13.0
55.912775292 12.0
55.917699148 11.0
55.922623004 14.0
55.927546860 13.0
55.932470717 15.0
55.937394573 16.0
55.942318429 15.0
55.947242285 14.0
55.952166141 8.0
55.957089997 9.0
55.962013853 7.0
55.966937709 8.0
55.971861565 10.0
55.976785421 12.0
55.981709277 5.0
55.986633133 12.0
55.991556989 14.0
55.996480845 13.0
56.001404701 8.0
56.006328557 8.0
56.011252413 13.0
56.016176269 9.0
56.021100125 8.0
56.026023981 20.0
56.030947837 12.0
56.035871693 10.0
56.040795549 17.0
56.045719405 9.0
56.050643261 11.0
56.055567117 6.0
56.060490973 11.0
56.065414829 13.0
56.070338685 8.0
56.075262541 5.0
56.080186397 16.0
56.085110253 6.0
56.090034109 10.0
56.094957965 9.0
56.099881821 15.0
56.104805677 14.0
56.109729533 13.0
56.114653389 8.0
56.119577245 6.0
56.124501101 8.0
56.129424957 16.0
56.134348813 11.0
56.139272669 13.0
56.144196525 17.0
56.149120381 12.0
56.154044237 6.0
56.158968093 11.0
56.163891949 11.0
56.168815805 10.0
56.173739661 14.0
56.178663517 13.0
56.183587373 11.0
56.188511229 10.0
56.193435085 10.0
56.198358941 14.0
56.203282797 19.0
56.208206653 9.0
56.213130509 9.0
56.218054365 7.0
56.222978221 17.0
56.227902077 9.0
56.232825933 10.0
56.237749789 6.0
56.242673645 15.0
56.247597501 11.0
56.252521357 16.0
56.257445213 8.0
56.262369069 17.0
56.267292925 11.0
56.272216781 17.0
56.277140637 15.0
56.282064493 16.0
56.286988349 11.0
56.291912205 13.0
56.296836061 10.0
56.301759918 7.0
56.306683774 9.0
56.311607630 11.0
56.316531486 11.0
56.321455342 17.0
56.326379198 9.0
56.331303054 8.0
56.336226910 9.0
56.341150766 12.0
56.346074622 14.0
56.350998478 9.0
56.355922334 12.0
56.360846190 12.0
56.365770046 10.0
56.370693902 15.0
56.375617758 9.0
56.380541614 14.0
56.385465470 13.0
56.390389326 7.0
56.395313182 10.0
56.400237038 15.0
56.405160894 8.0
56.410084750 14.0
56.415008606 13.0
56.419932462 26.0
56.424856318 19.0
56.429780174 10.0
56.434704030 5.0
56.439627886 11.0
56.444551742 12.0
56.449475598 11.0
56.454399454 6.0
56.459323310 18.0
56.464247166 7.0
56.469171022 16.0
56.474094878 12.0
56.479018734 15.0
56.483942590 13.0
56.488866446 9.0
56.493790302 12.0
56.498714158 12.0
56.503638014 16.0
56.508561870 11.0
56.513485726 12.0
56.518409582 11.0
56.523333438 15.0
56.528257294 11.0
56.533181150 10.0
56.538105006 10.0
56.543028862 12.0
56.547952718 10.0
56.552876574 8.0
56.557800430 4.0
56.562724286 4.0
56.567648142 13.0
56.572571998 16.0
56.577495854 16.0
56.582419710 9.0
56.587343566 10.0
56.592267422 14.0
56.597191278 19.0
56.602115134 9.0
56.607038990 11.0
56.611962846 14.0
56.616886702 13.0
56.621810558 6.0
56.626734414 8.0
56.631658270 9.0
56.636582126 19.0
56.641505982 12.0
56.646429838 16.0
56.651353694 10.0
56.656277550 9.0
56.661201406 13.0
56.666125262 11.0
56.671049119 14.0
56.675972975 12.0
56.680896831 15.0
56.685820687 4.0
56.690744543 11.0
56.695668399 15.0
56.700592255 5.0
56.705516111 12.0
56.710439967 13.0
56.715363823 9.0
56.720287679 6.0
56.725211535 13.0
56.730135391 16.0
56.735059247 12.0
56.739983103 12.0
56.744906959 13.0
56.749830815 12.0
56.754754671 20.0
56.759678527 11.0
56.764602383 11.0
56.769526239 14.0
56.774450095 19.0
56.779373951 13.0
56.784297807 14.0
56.789221663 12.0
56.794145519 11.0
56.799069375 8.0
56.803993231 7.0
56.808917087 13.0
56.813840943 7.0
56.818764799 8.0
56.823688655 15.0
56.828612511 17.0
56.833536367 13.0
56.838460223 17.0
56.843384079 11.0
56.848307935 15.0
56.853231791 17.0
56.858155647 12.0
56.863079503 13.0
56.868003359 10.0
56.872927215 17.0
56.877851071 13.0
56.882774927 10.0
56.887698783 12.0
56.892622639 13.0
56.897546495 15.0
56.902470351 12.0
56.907394207 13.0
56.912318063 10.0
56.917241919 16.0
56.922165775 12.0
56.927089631 16.0
56.932013487 13.0
56.936937343 17.0
56.941861199 11.0
56.946785055 9.0
56.951708911 12.0
56.956632767 7.0
56.961556623 9.0
56.966480479 10.0
56.971404335 14.0
56.976328191 15.0
56.981252047 11.0
56.986175903 12.0
56.991099759 11.0
56.996023615 9.0
57.000947471 12.0
57.005871327 17.0
57.010795183 17.0
57.015719039 16.0
57.020642895 15.0
57.025566751 8.0
57.030490607 17.0
57.035414463 17.0
57.040338320 7.0
57.045262176 9.0
57.050186032 23.0
57.055109888 18.0
57.060033744 22.0
57.064957600 13.0
57.069881456 11.0
57.074805312 10.0
57.079729168 15.0
57.084653024 15.0
57.089576880 15.0
57.094500736 23.0
57.099424592 11.0
57.104348448 17.0
57.109272304 10.0
57.114196160 17.0
57.119120016 17.0
57.124043872 13.0
57.128967728 14.0
57.133891584 15.0
57.138815440 16.0
57.143739296 15.0
57.148663152 18.0
57.153587008 16.0
57.158510864 12.0
57.163434720 9.0
57.168358576 20.0
57.173282432 18.0
57.178206288 13.0
57.183130144 19.0
57.188054000 12.0
57.192977856 15.0
57.197901712 17.0
57.202825568 6.0
57.207749424 14.0
57.212673280 22.0
57.217597136 25.0
57.222520992 19.0
57.227444848 17.0
57.232368704 24.0
57.237292560 16.0
57.242216416 19.0
57.247140272 20.0
57.252064128 19.0
57.256987984 16.0
57.261911840 21.0
57.266835696 30.0
57.271759552 25.0
57.276683408 24.0
57.281607264 17.0
57.286531120 28.0
57.291454976 18.0
57.296378832 18.0
57.301302688 13.0
57.306226544 26.0
57.311150400 24.0
57.316074256 25.0
57.320998112 19.0
57.325921968 23.0
57.330845824 16.0
57.335769680 23.0
57.340693536 28.0
57.345617392 20.0
57.350541248 25.0
57.355465104 27.0
57.360388960 28.0
57.365312816 35.0
57.370236672 27.0
57.375160528 21.0
57.380084384 25.0
57.385008240 25.0
57.389932096 31.0
57.394855952 21.0
57.399779808 33.0
57.404703664 32.0
57.409627521 16.0
57.414551377 30.0
57.419475233 30.0
57.424399089 24.0
57.429322945 33.0
57.434246801 41.0
57.439170657 24.0
57.444094513 24.0
57.449018369 36.0
57.453942225 26.0
57.458866081 42.0
57.463789937 37.0
57.468713793 22.0
57.473637649 27.0
57.478561505 34.0
57.483485361 31.0
57.488409217 39.0
57.493333073 26.0
57.498256929 27.0
57.503180785 29.0
57.508104641 29.0
57.513028497 26.0
57.517952353 29.0
57.522876209 30.0
57.527800065 20.0
57.532723921 33.0
57.537647777 32.0
57.542571633 26.0
57.547495489 26.0
57.552419345 33.0
57.557343201 36.0
57.562267057 30.0
57.567190913 26.0
57.572114769 30.0
57.577038625 32.0
57.581962481 32.0
57.586886337 31.0
57.591810193 28.0
57.596734049 39.0
57.601657905 29.0
57.606581761 18.0
57.611505617 27.0
57.616429473 25.0
57.621353329 25.0
57.626277185 19.0
57.631201041 22.0
57.636124897 20.0
57.641048753 15.0
57.645972609 25.0
57.650896465 28.0
57.655820321 26.0
57.660744177 15.0
57.665668033 15.0
57.670591889 16.0
57.675515745 28.0
57.680439601 18.0
57.685363457 22.0
57.690287313 33.0
57.695211169 22.0
57.700135025 21.0
57.705058881 22.0
57.709982737 21.0
57.714906593 24.0
57.719830449 13.0
57.724754305 13.0
57.729678161 20.0
57.734602017 29.0
57.739525873 21.0
57.744449729 19.0
57.749373585 24.0
57.754297441 21.0
57.759221297 12.0
57.764145153 22.0
57.769069009 17.0
57.773992865 21.0
57.778916721 18.0
57.783840578 19.0
57.788764434 16.0
57.793688290 20.0
57.798612146 14.0
57.803536002 17.0
57.808459858 16.0
57.813383714 13.0
57.818307570 8.0
57.823231426 15.0
57.828155282 18.0
57.833079138 21.0
57.838002994 14.0
57.842926850 14.0
57.847850706 11.0
57.852774562 16.0
57.857698418 19.0
57.862622274 13.0
57.867546130 22.0
57.872469986 12.0
57.877393842 17.0
57.882317698 17.0
57.887241554 15.0
57.892165410 9.0
57.897089266 14.0
57.902013122 14.0
57.906936978 15.0
57.911860834 16.0
57.916784690 19.0
57.921708546 10.0
57.926632402 18.0
57.931556258 13.0
57.936480114 11.0
57.941403970 13.0
57.946327826 21.0
57.951251682 10.0
57.956175538 12.0
57.961099394 10.0
57.966023250 14.0
57.970947106 12.0
57.975870962 18.0
57.980794818 16.0
57.985718674 11.0
57.990642530 16.0
57.995566386 18.0
58.000490242 10.0
58.005414098 11.0
58.010337954 15.0
58.015261810 15.0
58.020185666 18.0
58.025109522 16.0
58.030033378 18.0
58.034957234 16.0
58.039881090 14.0
58.044804946 12.0
58.049728802 18.0
58.054652658 14.0
58.059576514 17.0
58.064500370 14.0
58.069424226 18.0
58.074348082 8.0
58.079271938 11.0
58.084195794 11.0
58.089119650 16.0
58.094043506 14.0
58.098967362 8.0
58.103891218 16.0
58.108815074 9.0
58.113738930 18.0
58.118662786 18.0
58.123586642 8.0
58.128510498 14.0
58.133434354 23.0
58.138358210 9.0
58.143282066 10.0
58.148205922 14.0
58.153129779 13.0
58.158053635 13.0
58.162977491 13.0
58.167901347 17.0
58.172825203 16.0
58.177749059 10.0
58.182672915 17.0
58.187596771 12.0
58.192520627 6.0
58.197444483 15.0
58.202368339 11.0
58.207292195 15.0
58.212216051 13.0
58.217139907 13.0
58.222063763 13.0
58.226987619 11.0
58.231911475 8.0
58.236835331 8.0
58.241759187 13.0
58.246683043 15.0
58.251606899 8.0
58.256530755 15.0
58.261454611 13.0
58.266378467 16.0
58.271302323 14.0
58.276226179 17.0
58.281150035 13.0
58.286073891 12.0
58.290997747 16.0
58.295921603 13.0
58.300845459 12.0
58.305769315 10.0
58.310693171 17.0
58.315617027 8.0
58.320540883 10.0
58.325464739 14.0
58.330388595 16.0
58.335312451 11.0
58.340236307 9.0
58.345160163 22.0
58.350084019 14.0
58.355007875 9.0
58.359931731 15.0
58.364855587 14.0
58.369779443 11.0
58.374703299 12.0
58.379627155 13.0
58.384551011 18.0
58.389474867 11.0
58.394398723 7.0
58.399322579 19.0
58.404246435 17.0
58.409170291 6.0
58.414094147 11.0
58.419018003 11.0
58.423941859 12.0
58.428865715 14.0
58.433789571 12.0
58.438713427 15.0
58.443637283 16.0
58.448561139 14.0
58.453484995 10.0
58.458408851 14.0
58.463332707 9.0
58.468256563 10.0
58.473180419 18.0
58.478104275 10.0
58.483028131 11.0
58.487951987 16.0
58.492875843 11.0
58.497799699 10.0
58.502723555 16.0
58.507647411 7.0
58.512571267 12.0
58.517495123 13.0
58.522418980 8.0
58.527342836 18.0
58.532266692 17.0
58.537190548 22.0
58.542114404 11.0
58.547038260 15.0
58.551962116 16.0
58.556885972 8.0
58.561809828 10.0
58.566733684 13.0
58.571657540 12.0
58.576581396 14.0
58.581505252 16.0
58.586429108 10.0
58.591352964 11.0
58.596276820 5.0
58.601200676 13.0
58.606124532 13.0
58.611048388 13.0
58.615972244 11.0
58.620896100 14.0
58.625819956 9.0
58.630743812 15.0
58.635667668 10.0
58.640591524 17.0
58.645515380 11.0
58.650439236 18.0
58.655363092 11.0
58.660286948 9.0
58.665210804 16.0
58.670134660 13.0
58.675058516 14.0
58.679982372 13.0
58.684906228 12.0
58.689830084 14.0
58.694753940 12.0
58.699677796 19.0
58.704601652 6.0
58.709525508 7.0
58.714449364 13.0
58.719373220 13.0
58.724297076 13.0
58.729220932 10.0
58.734144788 12.0
58.739068644 15.0
58.743992500 14.0
58.748916356 18.0
58.753840212 10.0
58.758764068 10.0
58.763687924 15.0
58.768611780 6.0
58.773535636 7.0
58.778459492 10.0
58.783383348 13.0
58.788307204 6.0
58.793231060 14.0
58.798154916 7.0
58.803078772 8.0
58.808002628 16.0
58.812926484 14.0
58.817850340 13.0
58.822774196 13.0
58.827698052 17.0
58.832621908 7.0
58.837545764 9.0
58.842469620 7.0
58.847393476 10.0
58.852317332 9.0
58.857241188 16.0
58.862165044 15.0
58.867088900 7.0
58.872012756 12.0
58.876936612 8.0
58.881860468 15.0
58.886784324 11.0
58.891708181 12.0
58.896632037 17.0
58.901555893 12.0
58.906479749 14.0
58.911403605 16.0
58.916327461 17.0
58.921251317 13.0
58.926175173 12.0
58.931099029 10.0
58.936022885 10.0
58.940946741 10.0
58.945870597 11.0
58.950794453 13.0
58.955718309 10.0
58.960642165 14.0
58.965566021 14.0
58.970489877 13.0
58.975413733 21.0
58.980337589 7.0
58.985261445 11.0
58.990185301 17.0
58.995109157 11.0
59.000033013 9.0
59.004956869 11.0
59.009880725 10.0
59.014804581 8.0
59.019728437 14.0
59.024652293 6.0
59.029576149 16.0
59.034500005 17.0
59.039423861 12.0
59.044347717 15.0
59.049271573 16.0
59.054195429 20.0
59.059119285 13.0
59.064043141 10.0
59.068966997 11.0
59.073890853 10.0
59.078814709 14.0
59.083738565 13.0
59.088662421 11.0
59.093586277 15.0
59.098510133 14.0
59.103433989 13.0
59.108357845 14.0
59.113281701 15.0
59.118205557 12.0
59.123129413 21.0
59.128053269 15.0
59.132977125 9.0
59.137900981 10.0
59.142824837 7.0
59.147748693 12.0
59.152672549 14.0
59.157596405 12.0
59.162520261 8.0
59.167444117 10.0
59.172367973 17.0
59.177291829 11.0
59.182215685 12.0
59.187139541 13.0
59.192063397 8.0
59.196987253 16.0
59.201911109 8.0
59.206834965 15.0
59.211758821 11.0
59.216682677 13.0
59.221606533 5.0
59.226530389 12.0
59.231454245 13.0
59.236378101 14.0
59.241301957 12.0
59.246225813 8.0
59.251149669 17.0
59.256073525 15.0
59.260997382 17.0
59.265921238 13.0
59.270845094 14.0
59.275768950 13.0
59.280692806 4.0
59.285616662 11.0
59.290540518 13.0
59.295464374 12.0
59.300388230 7.0
59.305312086 14.0
59.310235942 12.0
59.315159798 10.0
59.320083654 10.0
59.325007510 15.0
59.329931366 7.0
59.334855222 15.0
59.339779078 15.0
59.344702934 11.0
59.349626790 9.0
59.354550646 13.0
59.359474502 15.0
59.364398358 10.0
59.369322214 14.0
59.374246070 10.0
59.379169926 14.0
59.384093782 8.0
59.389017638 15.0
59.393941494 11.0
59.398865350 4.0
59.403789206 14.0
59.408713062 9.0
59.413636918 7.0
59.418560774 10.0
59.423484630 12.0
59.428408486 10.0
59.433332342 18.0
59.438256198 9.0
59.443180054 8.0
59.448103910 16.0
59.453027766 15.0
59.457951622 10.0
59.462875478 13.0
59.467799334 7.0
59.472723190 9.0
59.477647046 8.0
59.482570902 17.0
59.487494758 14.0
59.492418614 13.0
59.497342470 15.0
59.502266326 10.0
59.507190182 11.0
59.512114038 15.0
59.517037894 7.0
59.521961750 16.0
59.526885606 16.0
59.531809462 15.0
59.536733318 10.0
59.541657174 7.0
59.546581030 10.0
59.551504886 14.0
59.556428742 19.0
59.561352598 16.0
59.566276454 17.0
59.571200310 13.0
59.576124166 11.0
59.581048022 11.0
59.585971878 15.0
59.590895734 11.0
59.595819590 6.0
59.600743446 21.0
59.605667302 8.0
59.610591158 12.0
59.615515014 12.0
59.620438870 17.0
59.625362726 10.0
59.630286582 16.0
59.635210439 13.0
59.640134295 23.0
59.645058151 13.0
59.649982007 16.0
59.654905863 16.0
59.659829719 17.0
59.664753575 10.0
59.669677431 7.0
59.674601287 10.0
59.679525143 11.0
59.684448999 20.0
59.689372855 10.0
59.694296711 14.0
59.699220567 10.0
59.704144423 10.0
59.709068279 12.0
59.713992135 4.0
59.718915991 13.0
59.723839847 14.0
59.728763703 17.0
59.733687559 11.0
59.738611415 17.0
59.743535271 9.0
59.748459127 16.0
59.753382983 12.0
59.758306839 7.0
59.763230695 16.0
59.768154551 13.0
59.773078407 9.0
59.778002263 11.0
59.782926119 12.0
59.787849975 10.0
59.792773831 9.0
59.797697687 18.0
59.802621543 12.0
59.807545399 20.0
59.812469255 3.0
59.817393111 18.0
59.822316967 11.0
59.827240823 11.0
59.832164679 16.0
59.837088535 12.0
59.842012391 14.0
59.846936247 18.0
59.851860103 11.0
59.856783959 14.0
59.861707815 15.0
59.866631671 8.0
59.871555527 7.0
59.876479383 14.0
59.881403239 23.0
59.886327095 11.0
59.891250951 13.0
59.896174807 13.0
59.901098663 17.0
59.906022519 15.0
59.910946375 11.0
59.915870231 14.0
59.920794087 12.0
59.925717943 11.0
59.930641799 18.0
59.935565655 15.0
59.940489511 10.0
59.945413367 19.0
59.950337223 13.0
59.955261079 15.0
59.960184935 6.0
59.965108791 16.0
59.970032647 16.0
59.974956503 11.0
59.979880359 15.0
59.984804215 17.0
59.989728071 11.0
59.994651927 14.0
59.999575783 20.0
60.004499640 9.0
60.009423496 17.0
60.014347352 14.0
60.019271208 11.0
60.024195064 12.0
60.029118920 13.0
60.034042776 10.0
60.038966632 9.0
60.043890488 16.0
60.048814344 9.0
60.053738200 14.0
60.058662056 14.0
60.063585912 13.0
60.068509768 17.0
60.073433624 18.0
60.078357480 13.0
60.083281336 12.0
60.088205192 14.0
60.093129048 12.0
60.098052904 10.0
60.102976760 18.0
60.107900616 9.0
60.112824472 8.0
60.117748328 18.0
60.122672184 11.0
60.127596040 13.0
60.132519896 6.0
60.137443752 15.0
60.142367608 12.0
60.147291464 17.0
60.152215320 15.0
60.157139176 19.0
60.162063032 11.0
60.166986888 11.0
60.171910744 18.0
60.176834600 17.0
60.181758456 17.0
60.186682312 10.0
60.191606168 7.0
60.196530024 13.0
60.201453880 11.0
60.206377736 10.0
60.211301592 13.0
60.216225448 16.0
60.221149304 16.0
60.226073160 20.0
60.230997016 19.0
60.235920872 9.0
60.240844728 23.0
60.245768584 23.0
60.250692440 16.0
60.255616296 26.0
60.260540152 21.0
60.265464008 29.0
60.270387864 24.0
60.275311720 20.0
60.280235576 22.0
60.285159432 26.0
60.290083288 22.0
60.295007144 26.0
60.299931000 16.0
60.304854856 16.0
60.309778712 20.0
60.314702568 23.0
60.319626424 18.0
60.324550280 17.0
60.329474136 16.0
60.334397992 16.0
60.339321848 18.0
60.344245704 13.0
60.349169560 16.0
60.354093416 21.0
60.359017272 20.0
60.363941128 17.0
60.368864984 14.0
60.373788841 17.0
60.378712697 21.0
60.383636553 16.0
60.388560409 21.0
60.393484265 19.0
60.398408121 12.0
60.403331977 15.0
60.408255833 22.0
60.413179689 19.0
60.418103545 12.0
60.423027401 23.0
60.427951257 24.0
60.432875113 23.0
60.437798969 17.0
60.442722825 21.0
60.447646681 19.0
60.452570537 20.0
60.457494393 18.0
60.462418249 20.0
60.467342105 21.0
60.472265961 18.0
60.477189817 17.0
60.482113673 22.0
60.487037529 21.0
60.491961385 16.0
60.496885241 18.0
60.501809097 25.0
60.506732953 13.0
60.511656809 21.0
60.516580665 26.0
60.521504521 19.0
60.526428377 18.0
60.531352233 18.0
60.536276089 21.0
60.541199945 28.0
60.546123801 19.0
60.551047657 26.0
60.555971513 24.0
60.560895369 14.0
60.565819225 13.0
60.570743081 25.0
60.575666937 17.0
60.580590793 34.0
60.585514649 17.0
60.590438505 30.0
60.595362361 17.0
60.600286217 21.0
60.605210073 22.0
60.610133929 22.0
60.615057785 21.0
60.619981641 23.0
60.624905497 22.0
60.629829353 26.0
60.634753209 26.0
60.639677065 25.0
60.644600921 27.0
60.649524777 20.0
60.654448633 28.0
60.659372489 32.0
60.664296345 33.0
60.669220201 24.0
60.674144057 44.0
60.679067913 44.0
60.683991769 48.0
60.688915625 56.0
60.693839481 59.0
60.698763337 43.0
60.703687193 54.0
60.708611049 82.0
60.713534905 83.0
60.718458761 86.0
60.723382617 100.0
60.728306473 119.0
60.733230329 118.0
60.738154185 161.0
60.743078042 159.0
60.748001898 201.0
60.752925754 301.0
60.757849610 365.0
60.762773466 450.0
60.767697322 469.0
60.772621178 535.0
60.777545034 648.0
60.782468890 626.0
60.787392746 640.0
60.792316602 673.0
60.797240458 689.0
60.802164314 684.0
60.807088170 616.0
60.812012026 628.0
60.816935882 494.0
60.821859738 464.0
60.826783594 397.0
60.831707450 376.0
60.836631306 334.0
60.841555162 314.0
60.846479018 296.0
60.851402874 277.0
60.856326730 257.0
60.861250586 227.0
60.866174442 229.0
60.871098298 190.0
60.876022154 197.0
60.880946010 159.0
60.885869866 167.0
60.890793722 153.0
60.895717578 146.0
60.900641434 146.0
60.905565290 122.0
60.910489146 120.0
60.915413002 121.0
60.920336858 92.0
60.925260714 104.0
60.930184570 60.0
60.935108426 57.0
60.940032282 59.0
60.944956138 65.0
60.949879994 61.0
60.954803850 45.0
60.959727706 43.0
60.964651562 65.0
60.969575418 41.0
60.974499274 45.0
60.979423130 46.0
60.984346986 41.0
60.989270842 40.0
60.994194698 46.0
60.999118554 27.0
61.004042410 41.0
61.008966266 38.0
61.013890122 43.0
61.018813978 39.0
61.023737834 45.0
61.028661690 43.0
61.033585546 34.0
61.038509402 30.0
61.043433258 31.0
61.048357114 37.0
61.053280970 36.0
61.058204826 19.0
61.063128682 34.0
61.068052538 31.0
61.072976394 30.0
61.077900250 26.0
61.082824106 27.0
61.087747962 29.0
61.092671818 31.0
61.097595674 37.0
61.102519530 33.0
61.107443386 31.0
61.112367243 37.0
61.117291099 30.0
61.122214955 32.0
61.127138811 30.0
61.132062667 23.0
61.136986523 23.0
61.141910379 24.0
61.146834235 23.0
61.151758091 25.0
61.156681947 34.0
61.161605803 24.0
61.166529659 23.0
61.171453515 17.0
61.176377371 31.0
61.181301227 30.0
61.186225083 19.0
61.191148939 23.0
61.196072795 29.0
61.200996651 23.0
61.205920507 25.0
61.210844363 19.0
61.215768219 18.0
61.220692075 25.0
61.225615931 21.0
61.230539787 25.0
61.235463643 11.0
61.240387499 24.0
61.245311355 21.0
61.250235211 17.0
61.255159067 21.0
61.260082923 23.0
61.265006779 20.0
61.269930635 25.0
61.274854491 27.0
61.279778347 22.0
61.284702203 30.0
61.289626059 19.0
61.294549915 17.0
61.299473771 16.0
61.304397627 21.0
61.309321483 20.0
61.314245339 19.0
61.319169195 23.0
61.324093051 28.0
61.329016907 19.0
61.333940763 15.0
61.338864619 21.0
61.343788475 25.0
61.348712331 20.0
61.353636187 27.0
61.358560043 33.0
61.363483899 19.0
61.368407755 28.0
61.373331611 19.0
61.378255467 23.0
61.383179323 25.0
61.388103179 26.0
61.393027035 26.0
61.397950891 17.0
61.402874747 18.0
61.407798603 20.0
61.412722459 32.0
61.417646315 21.0
61.422570171 27.0
61.427494027 20.0
61.432417883 19.0
61.437341739 23.0
61.442265595 18.0
61.447189451 18.0
61.452113307 23.0
61.457037163 22.0
61.461961019 22.0
61.466884875 15.0
61.471808731 20.0
61.476732587 25.0
61.481656443 17.0
61.486580300 17.0
61.491504156 23.0
61.496428012 18.0
61.501351868 23.0
61.506275724 22.0
61.511199580 20.0
61.516123436 25.0
61.521047292 25.0
61.525971148 24.0
61.530895004 19.0
61.535818860 14.0
61.540742716 25.0
61.545666572 21.0
61.550590428 19.0
61.555514284 28.0
61.560438140 25.0
61.565361996 16.0
61.570285852 19.0
61.575209708 28.0
61.580133564 21.0
61.585057420 24.0
61.589981276 17.0
61.594905132 24.0
61.599828988 24.0
61.604752844 21.0
61.609676700 22.0
61.614600556 19.0
61.619524412 20.0
61.624448268 26.0
61.629372124 20.0
61.634295980 21.0
61.639219836 16.0
61.644143692 17.0
61.649067548 17.0
61.653991404 20.0
61.658915260 18.0
61.663839116 29.0
61.668762972 26.0
61.673686828 20.0
61.678610684 25.0
61.683534540 18.0
61.688458396 15.0
61.693382252 18.0
61.698306108 14.0
61.703229964 21.0
61.708153820 24.0
61.713077676 26.0
61.718001532 29.0
61.722925388 22.0
61.727849244 19.0
61.732773100 27.0
61.737696956 15.0
61.742620812 21.0
61.747544668 28.0
61.752468524 27.0
61.757392380 25.0
61.762316236 27.0
61.767240092 21.0
61.772163948 20.0
61.777087804 14.0
61.782011660 31.0
61.786935516 28.0
61.791859372 32.0
61.796783228 26.0
61.801707084 23.0
61.806630940 29.0
61.811554796 22.0
61.816478652 23.0
61.821402508 21.0
61.826326364 24.0
61.831250220 26.0
61.836174076 29.0
61.841097932 20.0
61.846021788 28.0
61.850945644 17.0
61.855869501 21.0
61.860793357 16.0
61.865717213 26.0
61.870641069 18.0
61.875564925 24.0
61.880488781 21.0
61.885412637 21.0
61.890336493 25.0
61.895260349 31.0
61.900184205 17.0
61.905108061 21.0
61.910031917 19.0
61.914955773 36.0
61.919879629 26.0
61.924803485 14.0
61.929727341 31.0
61.934651197 21.0
61.939575053 31.0
61.944498909 22.0
61.949422765 29.0
61.954346621 18.0
61.959270477 25.0
61.964194333 26.0
61.969118189 18.0
61.974042045 19.0
61.978965901 22.0
61.983889757 25.0
61.988813613 15.0
61.993737469 28.0
61.998661325 27.0
62.003585181 27.0
62.008509037 35.0
62.013432893 19.0
62.018356749 25.0
62.023280605 19.0
62.028204461 31.0
62.033128317 22.0
62.038052173 21.0
62.042976029 25.0
62.047899885 17.0
62.052823741 21.0
62.057747597 21.0
62.062671453 30.0
62.067595309 25.0
62.072519165 25.0
62.077443021 34.0
62.082366877 31.0
62.087290733 31.0
62.092214589 20.0
62.097138445 22.0
62.102062301 29.0
62.106986157 25.0
62.111910013 23.0
62.116833869 16.0
62.121757725 23.0
62.126681581 23.0
62.131605437 23.0
62.136529293 28.0
62.141453149 23.0
62.146377005 25.0
62.151300861 34.0
62.156224717 22.0
62.161148573 25.0
62.166072429 29.0
62.170996285 24.0
62.175920141 26.0
62.180843997 31.0
62.185767853 31.0
62.190691709 27.0
62.195615565 27.0
62.200539421 30.0
62.205463277 29.0
62.210387133 27.0
62.215310989 30.0
62.220234845 39.0
62.225158702 28.0
62.230082558 35.0
62.235006414 25.0
62.239930270 24.0
62.244854126 24.0
62.249777982 23.0
62.254701838 27.0
62.259625694 29.0
62.264549550 32.0
62.269473406 32.0
62.274397262 27.0
62.279321118 24.0
62.284244974 37.0
62.289168830 26.0
62.294092686 20.0
62.299016542 30.0
62.303940398 22.0
62.308864254 18.0
62.313788110 39.0
62.318711966 35.0
62.323635822 36.0
62.328559678 24.0
62.333483534 37.0
62.338407390 33.0
62.343331246 30.0
62.348255102 27.0
62.353178958 29.0
62.358102814 32.0
62.363026670 32.0
62.367950526 40.0
62.372874382 30.0
62.377798238 32.0
62.382722094 40.0
62.387645950 30.0
62.392569806 28.0
62.397493662 36.0
62.402417518 23.0
62.407341374 35.0
62.412265230 35.0
62.417189086 39.0
62.422112942 27.0
62.427036798 36.0
62.431960654 32.0
62.436884510 31.0
62.441808366 29.0
62.446732222 40.0
62.451656078 30.0
62.456579934 34.0
62.461503790 29.0
62.466427646 34.0
62.471351502 46.0
62.476275358 30.0
62.481199214 35.0
62.486123070 33.0
62.491046926 36.0
62.495970782 39.0
62.500894638 33.0
62.505818494 32.0
62.510742350 34.0
62.515666206 37.0
62.520590062 44.0
62.525513918 33.0
62.530437774 45.0
62.535361630 33.0
62.540285486 39.0
62.545209342 39.0
62.550133198 35.0
62.555057054 34.0
62.559980910 43.0
62.564904766 31.0
62.569828622 37.0
62.574752478 44.0
62.579676334 32.0
62.584600190 41.0
62.589524046 31.0
62.594447903 33.0
62.599371759 36.0
62.604295615 39.0
62.609219471 34.0
62.614143327 32.0
62.619067183 48.0
62.623991039 39.0
62.628914895 47.0
62.633838751 44.0
62.638762607 29.0
62.643686463 43.0
62.648610319 37.0
62.653534175 32.0
62.658458031 32.0
62.663381887 34.0
62.668305743 45.0
62.673229599 47.0
62.678153455 35.0
62.683077311 61.0
62.688001167 33.0
62.692925023 43.0
62.697848879 46.0
62.702772735 46.0
62.707696591 39.0
62.712620447 40.0
62.717544303 37.0
62.722468159 47.0
62.727392015 41.0
62.732315871 43.0
62.737239727 31.0
62.742163583 36.0
62.747087439 41.0
62.752011295 31.0
62.756935151 48.0
62.761859007 52.0
62.766782863 41.0
62.771706719 40.0
62.776630575 38.0
62.781554431 47.0
62.786478287 45.0
62.791402143 56.0
62.796325999 47.0
62.801249855 43.0
62.806173711 50.0
62.811097567 43.0
62.816021423 36.0
62.820945279 45.0
62.825869135 49.0
62.830792991 51.0
62.835716847 48.0
62.840640703 61.0
62.845564559 48.0
62.850488415 48.0
62.855412271 50.0
62.860336127 52.0
62.865259983 39.0
62.870183839 46.0
62.875107695 52.0
62.880031551 46.0
62.884955407 62.0
62.889879263 45.0
62.894803119 39.0
62.899726975 56.0
62.904650831 55.0
62.909574687 63.0
62.914498543 55.0
62.919422399 52.0
62.924346255 62.0
62.929270111 56.0
62.934193967 49.0
62.939117823 46.0
62.944041679 54.0
62.948965535 58.0
62.953889391 46.0
62.958813247 58.0
62.963737104 55.0
62.968660960 52.0
62.973584816 50.0
62.978508672 52.0
62.983432528 60.0
62.988356384 70.0
62.993280240 63.0
62.998204096 50.0
63.003127952 59.0
63.008051808 62.0
63.012975664 62.0
63.017899520 65.0
63.022823376 46.0
63.027747232 49.0
63.032671088 60.0
63.037594944 50.0
63.042518800 60.0
63.047442656 55.0
63.052366512 74.0
63.057290368 53.0
63.062214224 53.0
63.067138080 59.0
63.072061936 62.0
63.076985792 75.0
63.081909648 68.0
63.086833504 68.0
63.091757360 46.0
63.096681216 63.0
63.101605072 79.0
63.106528928 59.0
63.111452784 53.0
63.116376640 41.0
63.121300496 63.0
63.126224352 75.0
63.131148208 74.0
63.136072064 62.0
63.140995920 73.0
63.145919776 55.0
63.150843632 76.0
63.155767488 70.0
63.160691344 69.0
63.165615200 82.0
63.170539056 71.0
63.175462912 66.0
63.180386768 90.0
63.185310624 84.0
63.190234480 84.0
63.195158336 64.0
63.200082192 72.0
63.205006048 72.0
63.209929904 84.0
63.214853760 76.0
63.219777616 85.0
63.224701472 86.0
63.229625328 84.0
63.234549184 72.0
63.239473040 70.0
63.244396896 62.0
63.249320752 82.0
63.254244608 82.0
63.259168464 92.0
63.264092320 71.0
63.269016176 90.0
63.273940032 93.0
63.278863888 87.0
63.283787744 91.0
63.288711600 96.0
63.293635456 80.0
63.298559312 102.0
63.303483168 83.0
63.308407024 86.0
63.313330880 99.0
63.318254736 87.0
63.323178592 99.0
63.328102448 103.0
63.333026304 104.0
63.337950161 84.0
63.342874017 101.0
63.347797873 105.0
63.352721729 90.0
63.357645585 99.0
63.362569441 104.0
63.367493297 93.0
63.372417153 84.0
63.377341009 113.0
63.382264865 110.0
63.387188721 117.0
63.392112577 104.0
63.397036433 99.0
63.401960289 108.0
63.406884145 125.0
63.411808001 126.0
63.416731857 117.0
63.421655713 127.0
63.426579569 133.0
63.431503425 134.0
63.436427281 128.0
63.441351137 136.0
63.446274993 134.0
63.451198849 111.0
63.456122705 122.0
63.461046561 130.0
63.465970417 125.0
63.470894273 147.0
63.475818129 129.0
63.480741985 132.0
63.485665841 123.0
63.490589697 123.0
63.495513553 132.0
63.500437409 161.0
63.505361265 140.0
63.510285121 161.0
63.515208977 135.0
63.520132833 142.0
63.525056689 167.0
63.529980545 153.0
63.534904401 148.0
63.539828257 152.0
63.544752113 176.0
63.549675969 169.0
63.554599825 144.0
63.559523681 158.0
63.564447537 168.0
63.569371393 151.0
63.574295249 175.0
63.579219105 177.0
63.584142961 188.0
63.589066817 194.0
63.593990673 187.0
63.598914529 222.0
63.603838385 192.0
63.608762241 192.0
63.613686097 209.0
63.618609953 209.0
63.623533809 196.0
63.628457665 189.0
63.633381521 212.0
63.638305377 222.0
63.643229233 206.0
63.648153089 218.0
63.653076945 256.0
63.658000801 234.0
63.662924657 257.0
63.667848513 235.0
63.672772369 261.0
63.677696225 260.0
63.682620081 241.0
63.687543937 276.0
63.692467793 273.0
63.697391649 281.0
63.702315505 272.0
63.707239362 257.0
63.712163218 285.0
63.717087074 292.0
63.722010930 317.0
63.726934786 313.0
63.731858642 339.0
63.736782498 340.0
63.741706354 370.0
63.746630210 338.0
63.751554066 345.0
63.756477922 379.0
63.761401778 343.0
63.766325634 346.0
63.771249490 377.0
63.776173346 415.0
63.781097202 387.0
63.786021058 390.0
63.790944914 426.0
63.795868770 427.0
63.800792626 406.0
63.805716482 434.0
63.810640338 430.0
63.815564194 491.0
63.820488050 454.0
63.825411906 457.0
63.830335762 487.0
63.835259618 500.0
63.840183474 488.0
63.845107330 522.0
63.850031186 489.0
63.854955042 554.0
63.859878898 550.0
63.864802754 579.0
63.869726610 572.0
63.874650466 651.0
63.879574322 619.0
63.884498178 649.0
63.889422034 614.0
63.894345890 613.0
63.899269746 634.0
63.904193602 621.0
63.909117458 663.0
63.914041314 713.0
63.918965170 740.0
63.923889026 701.0
63.928812882 714.0
63.933736738 766.0
63.938660594 822.0
63.943584450 845.0
63.948508306 854.0
63.953432162 827.0
63.958356018 915.0
63.963279874 858.0
63.968203730 984.0
63.973127586 903.0
63.978051442 947.0
63.982975298 968.0
63.987899154 985.0
63.992823010 1066.0
63.997746866 1066.0
64.002670722 1071.0
64.007594578 1113.0
64.012518434 1171.0
64.017442290 1217.0
64.022366146 1192.0
64.027290002 1233.0
64.032213858 1289.0
64.037137714 1254.0
64.042061570 1348.0
64.046985426 1354.0
64.051909282 1393.0
64.056833138 1449.0
64.061756994 1505.0
64.066680850 1523.0
64.071604706 1574.0
64.076528563 1602.0
64.081452419 1574.0
64.086376275 1686.0
64.091300131 1711.0
64.096223987 1832.0
64.101147843 1729.0
64.106071699 1865.0
64.110995555 1843.0
64.115919411 1900.0
64.120843267 1968.0
64.125767123 2065.0
64.130690979 2080.0
64.135614835 2101.0
64.140538691 2081.0
64.145462547 2184.0
64.150386403 2255.0
64.155310259 2269.0
64.160234115 2400.0
64.165157971 2325.0
64.170081827 2352.0
64.175005683 2488.0
64.179929539 2517.0
64.184853395 2581.0
64.189777251 2562.0
64.194701107 2590.0
64.199624963 2713.0
64.204548819 2857.0
64.209472675 2887.0
64.214396531 2862.0
64.219320387 3030.0
64.224244243 2876.0
64.229168099 3123.0
64.234091955 3185.0
64.239015811 3210.0
64.243939667 3229.0
64.248863523 3256.0
64.253787379 3287.0
64.258711235 3390.0
64.263635091 3461.0
64.268558947 3432.0
64.273482803 3539.0
64.278406659 3549.0
64.283330515 3557.0
64.288254371 3661.0
64.293178227 3534.0
64.298102083 3792.0
64.303025939 3739.0
64.307949795 3723.0
64.312873651 3865.0
64.317797507 3852.0
64.322721363 3791.0
64.327645219 3852.0
64.332569075 3878.0
64.337492931 3820.0
64.342416787 3904.0
64.347340643 3871.0
64.352264499 3780.0
64.357188355 3767.0
64.362112211 3924.0
64.367036067 3779.0
64.371959923 3785.0
64.376883779 3748.0
64.381807635 3790.0
64.386731491 3766.0
64.391655347 3598.0
64.396579203 3623.0
64.401503059 3618.0
64.406426915 3599.0
64.411350771 3533.0
64.416274627 3525.0
64.421198483 3403.0
64.426122339 3536.0
64.431046195 3409.0
64.435970051 3356.0
64.440893907 3324.0
64.445817764 3218.0
64.450741620 3303.0
64.455665476 3070.0
64.460589332 3258.0
64.465513188 3203.0
64.470437044 3027.0
64.475360900 3129.0
64.480284756 2977.0
64.485208612 3073.0
64.490132468 2816.0
64.495056324 3085.0
64.499980180 2905.0
64.504904036 2739.0
64.509827892 2791.0
64.514751748 2688.0
64.519675604 2697.0
64.524599460 2653.0
64.529523316 2567.0
64.534447172 2474.0
64.539371028 2483.0
64.544294884 2517.0
64.549218740 2408.0
64.554142596 2402.0
64.559066452 2277.0
64.563990308 2272.0
64.568914164 2227.0
64.573838020 2214.0
64.578761876 2096.0
64.583685732 2102.0
64.588609588 2004.0
64.593533444 1996.0
64.598457300 1920.0
64.603381156 1833.0
64.608305012 1838.0
64.613228868 1747.0
64.618152724 1687.0
64.623076580 1719.0
64.628000436 1668.0
64.632924292 1626.0
64.637848148 1547.0
64.642772004 1539.0
64.647695860 1436.0
64.652619716 1436.0
64.657543572 1427.0
64.662467428 1386.0
64.667391284 1404.0
64.672315140 1326.0
64.677238996 1366.0
64.682162852 1260.0
64.687086708 1240.0
64.692010564 1155.0
64.696934420 1120.0
64.701858276 1134.0
64.706782132 1100.0
64.711705988 1095.0
64.716629844 1148.0
64.721553700 1014.0
64.726477556 993.0
64.731401412 985.0
64.736325268 939.0
64.741249124 880.0
64.746172980 904.0
64.751096836 926.0
64.756020692 865.0
64.760944548 885.0
64.765868404 824.0
64.770792260 781.0
64.775716116 785.0
64.780639972 782.0
64.785563828 829.0
64.790487684 791.0
64.795411540 738.0
64.800335396 709.0
64.805259252 712.0
64.810183108 720.0
64.815106965 668.0
64.820030821 660.0
64.824954677 610.0
64.829878533 644.0
64.834802389 670.0
64.839726245 572.0
64.844650101 581.0
64.849573957 552.0
64.854497813 563.0
64.859421669 576.0
64.864345525 533.0
64.869269381 520.0
64.874193237 553.0
64.879117093 521.0
64.884040949 536.0
64.888964805 521.0
64.893888661 510.0
64.898812517 494.0
64.903736373 466.0
64.908660229 471.0
64.913584085 473.0
64.918507941 412.0
64.923431797 466.0
64.928355653 436.0
64.933279509 440.0
64.938203365 405.0
64.943127221 418.0
64.948051077 409.0
64.952974933 389.0
64.957898789 381.0
64.962822645 364.0
64.967746501 394.0
64.972670357 392.0
64.977594213 386.0
64.982518069 386.0
64.987441925 357.0
64.992365781 329.0
64.997289637 370.0
65.002213493 359.0
65.007137349 309.0
65.012061205 314.0
65.016985061 350.0
65.021908917 311.0
65.026832773 297.0
65.031756629 297.0
65.036680485 293.0
65.041604341 315.0
65.046528197 302.0
65.051452053 311.0
65.056375909 291.0
65.061299765 281.0
65.066223621 288.0
65.071147477 290.0
65.076071333 255.0
65.080995189 272.0
65.085919045 228.0
65.090842901 278.0
65.095766757 259.0
65.100690613 265.0
65.105614469 240.0
65.110538325 248.0
65.115462181 221.0
65.120386037 245.0
65.125309893 206.0
65.130233749 238.0
65.135157605 233.0
65.140081461 202.0
65.145005317 226.0
65.149929173 202.0
65.154853029 221.0
65.159776885 203.0
65.164700741 184.0
65.169624597 211.0
65.174548453 181.0
65.179472309 181.0
65.184396165 208.0
65.189320022 179.0
65.194243878 180.0
65.199167734 186.0
65.204091590 168.0
65.209015446 162.0
65.213939302 190.0
65.218863158 174.0
65.223787014 180.0
65.228710870 177.0
65.233634726 175.0
65.238558582 167.0
65.243482438 184.0
65.248406294 156.0
65.253330150 158.0
65.258254006 162.0
65.263177862 139.0
65.268101718 164.0
65.273025574 139.0
65.277949430 159.0
65.282873286 150.0
65.287797142 125.0
65.292720998 163.0
65.297644854 158.0
65.302568710 146.0
65.307492566 142.0
65.312416422 130.0
65.317340278 130.0
65.322264134 143.0
65.327187990 162.0
65.332111846 134.0
65.337035702 145.0
65.341959558 128.0
65.346883414 115.0
65.351807270 122.0
65.356731126 144.0
65.361654982 148.0
65.366578838 124.0
65.371502694 128.0
65.376426550 133.0
65.381350406 99.0
65.386274262 117.0
65.391198118 143.0
65.396121974 116.0
65.401045830 125.0
65.405969686 140.0
65.410893542 98.0
65.415817398 103.0
65.420741254 118.0
65.425665110 115.0
65.430588966 131.0
65.435512822 117.0
65.440436678 112.0
65.445360534 100.0
65.450284390 117.0
65.455208246 133.0
65.460132102 109.0
65.465055958 100.0
65.469979814 106.0
65.474903670 113.0
65.479827526 102.0
65.484751382 101.0
65.489675238 95.0
65.494599094 106.0
65.499522950 100.0
65.504446806 97.0
65.509370662 97.0
65.514294518 89.0
65.519218374 105.0
65.524142230 101.0
65.529066086 95.0
65.533989942 85.0
65.538913798 96.0
65.543837654 87.0
65.548761510 80.0
65.553685366 105.0
65.558609223 93.0
65.563533079 102.0
65.568456935 93.0
65.573380791 89.0
65.578304647 106.0
65.583228503 81.0
65.588152359 87.0
65.593076215 87.0
65.598000071 80.0
65.602923927 98.0
65.607847783 83.0
65.612771639 81.0
65.617695495 91.0
65.622619351 77.0
65.627543207 87.0
65.632467063 81.0
65.637390919 66.0
65.642314775 84.0
65.647238631 70.0
65.652162487 90.0
65.657086343 94.0
65.662010199 69.0
65.666934055 83.0
65.671857911 82.0
65.676781767 72.0
65.681705623 78.0
65.686629479 84.0
65.691553335 69.0
65.696477191 77.0
65.701401047 70.0
65.706324903 66.0
65.711248759 77.0
65.716172615 74.0
65.721096471 84.0
65.726020327 58.0
65.730944183 76.0
65.735868039 81.0
65.740791895 87.0
65.745715751 78.0
65.750639607 74.0
65.755563463 66.0
65.760487319 67.0
65.765411175 74.0
65.770335031 71.0
65.775258887 83.0
65.780182743 65.0
65.785106599 83.0
65.790030455 53.0
65.794954311 77.0
65.799878167 78.0
65.804802023 76.0
65.809725879 75.0
65.814649735 67.0
65.819573591 64.0
65.824497447 64.0
65.829421303 73.0
65.834345159 48.0
65.839269015 64.0
65.844192871 68.0
65.849116727 74.0
65.854040583 69.0
65.858964439 75.0
65.863888295 77.0
65.868812151 82.0
65.873736007 69.0
65.878659863 90.0
65.883583719 73.0
65.888507575 74.0
65.893431431 69.0
65.898355287 70.0
65.903279143 68.0
65.908202999 79.0
65.913126855 65.0
65.918050711 75.0
65.922974567 63.0
65.927898424 62.0
65.932822280 67.0
65.937746136 69.0
65.942669992 51.0
65.947593848 82.0
65.952517704 76.0
65.957441560 72.0
65.962365416 75.0
65.967289272 68.0
65.972213128 59.0
65.977136984 58.0
65.982060840 78.0
65.986984696 83.0
65.991908552 76.0
65.996832408 78.0
66.001756264 80.0
66.006680120 68.0
66.011603976 55.0
66.016527832 91.0
66.021451688 83.0
66.026375544 69.0
66.031299400 60.0
66.036223256 78.0
66.041147112 73.0
66.046070968 59.0
66.050994824 77.0
66.055918680 83.0
66.060842536 61.0
66.065766392 62.0
66.070690248 69.0
66.075614104 88.0
66.080537960 65.0
66.085461816 70.0
66.090385672 56.0
66.095309528 72.0
66.100233384 77.0
66.105157240 71.0
66.110081096 67.0
66.115004952 70.0
66.119928808 79.0
66.124852664 76.0
66.129776520 69.0
66.134700376 83.0
66.139624232 73.0
66.144548088 80.0
66.149471944 70.0
66.154395800 76.0
66.159319656 72.0
66.164243512 78.0
66.169167368 72.0
66.174091224 76.0
66.179015080 73.0
66.183938936 84.0
66.188862792 69.0
66.193786648 62.0
66.198710504 71.0
66.203634360 85.0
66.208558216 69.0
66.213482072 66.0
66.218405928 78.0
66.223329784 76.0
66.228253640 73.0
66.233177496 84.0
66.238101352 76.0
66.243025208 80.0
66.247949064 74.0
66.252872920 80.0
66.257796776 77.0
66.262720632 78.0
66.267644488 78.0
66.272568344 73.0
66.277492200 76.0
66.282416056 101.0
66.287339912 109.0
66.292263768 75.0
66.297187625 80.0
66.302111481 78.0
66.307035337 63.0
66.311959193 78.0
66.316883049 81.0
66.321806905 75.0
66.326730761 71.0
66.331654617 90.0
66.336578473 83.0
66.341502329 90.0
66.346426185 91.0
66.351350041 85.0
66.356273897 96.0
66.361197753 80.0
66.366121609 100.0
66.371045465 89.0
66.375969321 91.0
66.380893177 87.0
66.385817033 76.0
66.390740889 85.0
66.395664745 88.0
66.400588601 83.0
66.405512457 84.0
66.410436313 96.0
66.415360169 102.0
66.420284025 88.0
66.425207881 84.0
66.430131737 86.0
66.435055593 100.0
66.439979449 94.0
66.444903305 105.0
66.449827161 89.0
66.454751017 80.0
66.459674873 78.0
66.464598729 86.0
66.469522585 92.0
66.474446441 108.0
66.479370297 84.0
66.484294153 89.0
66.489218009 97.0
66.494141865 95.0
66.499065721 112.0
66.503989577 74.0
66.508913433 88.0
66.513837289 91.0
66.518761145 74.0
66.523685001 88.0
66.528608857 91.0
66.533532713 101.0
66.538456569 116.0
66.543380425 96.0
66.548304281 104.0
66.553228137 98.0
66.558151993 90.0
66.563075849 112.0
66.567999705 90.0
66.572923561 106.0
66.577847417 106.0
66.582771273 87.0
66.587695129 89.0
66.592618985 98.0
66.597542841 104.0
66.602466697 99.0
66.607390553 78.0
66.612314409 108.0
66.617238265 107.0
66.622162121 101.0
66.627085977 107.0
66.632009833 91.0
66.636933689 85.0
66.641857545 114.0
66.646781401 97.0
66.651705257 97.0
66.656629113 109.0
66.661552969 91.0
66.666476826 111.0
66.671400682 110.0
66.676324538 87.0
66.681248394 93.0
66.686172250 95.0
66.691096106 110.0
66.696019962 128.0
66.700943818 90.0
66.705867674 119.0
66.710791530 92.0
66.715715386 109.0
66.720639242 133.0
66.725563098 114.0
66.730486954 142.0
66.735410810 104.0
66.740334666 95.0
66.745258522 110.0
66.750182378 117.0
66.755106234 116.0
66.760030090 118.0
66.764953946 111.0
66.769877802 106.0
66.774801658 120.0
66.779725514 117.0
66.784649370 133.0
66.789573226 106.0
66.794497082 128.0
66.799420938 114.0
66.804344794 106.0
66.809268650 119.0
66.814192506 117.0
66.819116362 103.0
66.824040218 98.0
66.828964074 111.0
66.833887930 115.0
66.838811786 143.0
66.843735642 109.0
66.848659498 121.0
66.853583354 112.0
66.858507210 119.0
66.863431066 141.0
66.868354922 124.0
66.873278778 124.0
66.878202634 131.0
66.883126490 122.0
66.888050346 133.0
66.892974202 142.0
66.897898058 156.0
66.902821914 116.0
66.907745770 131.0
66.912669626 119.0
66.917593482 155.0
66.922517338 117.0
66.927441194 121.0
66.932365050 128.0
66.937288906 128.0
66.942212762 132.0
66.947136618 137.0
66.952060474 145.0
66.956984330 127.0
66.961908186 166.0
66.966832042 138.0
66.971755898 162.0
66.976679754 155.0
66.981603610 123.0
66.986527466 141.0
66.991451322 158.0
66.996375178 157.0
67.001299034 134.0
67.006222890 143.0
67.011146746 162.0
67.016070602 146.0
67.020994458 137.0
67.025918314 133.0
67.030842170 138.0
67.035766026 153.0
67.040689883 153.0
67.045613739 151.0
67.050537595 152.0
67.055461451 148.0
67.060385307 158.0
67.065309163 148.0
67.070233019 158.0
67.075156875 140.0
67.080080731 184.0
67.085004587 145.0
67.089928443 151.0
67.094852299 166.0
67.099776155 168.0
67.104700011 153.0
67.109623867 150.0
67.114547723 152.0
67.119471579 170.0
67.124395435 147.0
67.129319291 175.0
67.134243147 155.0
67.139167003 161.0
67.144090859 158.0
67.149014715 181.0
67.153938571 185.0
67.158862427 170.0
67.163786283 164.0
67.168710139 169.0
67.173633995 148.0
67.178557851 162.0
67.183481707 189.0
67.188405563 150.0
67.193329419 170.0
67.198253275 177.0
67.203177131 184.0
67.208100987 179.0
67.213024843 185.0
67.217948699 184.0
67.222872555 160.0
67.227796411 175.0
67.232720267 190.0
67.237644123 166.0
67.242567979 177.0
67.247491835 178.0
67.252415691 191.0
67.257339547 190.0
67.262263403 202.0
67.267187259 183.0
67.272111115 183.0
67.277034971 203.0
67.281958827 191.0
67.286882683 193.0
67.291806539 214.0
67.296730395 179.0
67.301654251 267.0
67.306578107 185.0
67.311501963 221.0
67.316425819 181.0
67.321349675 217.0
67.326273531 219.0
67.331197387 200.0
67.336121243 207.0
67.341045099 211.0
67.345968955 261.0
67.350892811 266.0
67.355816667 263.0
67.360740523 272.0
67.365664379 275.0
67.370588235 258.0
67.375512091 263.0
67.380435947 265.0
67.385359803 287.0
67.390283659 206.0
67.395207515 272.0
67.400131371 265.0
67.405055227 273.0
67.409979084 279.0
67.414902940 301.0
67.419826796 275.0
67.424750652 299.0
67.429674508 307.0
67.434598364 286.0
67.439522220 291.0
67.444446076 298.0
67.449369932 275.0
67.454293788 302.0
67.459217644 312.0
67.464141500 295.0
67.469065356 305.0
67.473989212 300.0
67.478913068 320.0
67.483836924 320.0
67.488760780 358.0
67.493684636 331.0
67.498608492 305.0
67.503532348 335.0
67.508456204 302.0
67.513380060 327.0
67.518303916 342.0
67.523227772 357.0
67.528151628 352.0
67.533075484 337.0
67.537999340 326.0
67.542923196 386.0
67.547847052 376.0
67.552770908 345.0
67.557694764 355.0
67.562618620 363.0
67.567542476 379.0
67.572466332 376.0
67.577390188 382.0
67.582314044 397.0
67.587237900 371.0
67.592161756 416.0
67.597085612 419.0
67.602009468 450.0
67.606933324 445.0
67.611857180 436.0
67.616781036 476.0
67.621704892 450.0
67.626628748 412.0
67.631552604 451.0
67.636476460 482.0
67.641400316 484.0
67.646324172 520.0
67.651248028 476.0
67.656171884 506.0
67.661095740 565.0
67.666019596 559.0
67.670943452 559.0
67.675867308 645.0
67.680791164 653.0
67.685715020 661.0
67.690638876 711.0
67.695562732 707.0
67.700486588 781.0
67.705410444 790.0
67.710334300 918.0
67.715258156 840.0
67.720182012 926.0
67.725105868 956.0
67.730029724 1053.0
67.734953580 1058.0
67.739877436 1096.0
67.744801292 1181.0
67.749725148 1195.0
67.754649004 1245.0
67.759572860 1342.0
67.764496716 1272.0
67.769420572 1373.0
67.774344428 1410.0
67.779268285 1359.0
67.784192141 1536.0
67.789115997 1484.0
67.794039853 1473.0
67.798963709 1487.0
67.803887565 1431.0
67.808811421 1514.0
67.813735277 1527.0
67.818659133 1483.0
67.823582989 1494.0
67.828506845 1504.0
67.833430701 1500.0
67.838354557 1508.0
67.843278413 1476.0
67.848202269 1443.0
67.853126125 1420.0
67.858049981 1456.0
67.862973837 1380.0
67.867897693 1396.0
67.872821549 1419.0
67.877745405 1421.0
67.882669261 1409.0
67.887593117 1450.0
67.892516973 1476.0
67.897440829 1505.0
67.902364685 1547.0
67.907288541 1570.0
67.912212397 1656.0
67.917136253 1717.0
67.922060109 1765.0
67.926983965 1774.0
67.931907821 1892.0
67.936831677 1954.0
67.941755533 2016.0
67.946679389 2133.0
67.951603245 2294.0
67.956527101 2342.0
67.961450957 2580.0
67.966374813 2712.0
67.971298669 2821.0
67.976222525 2991.0
67.981146381 3178.0
67.986070237 3516.0
67.990994093 3603.0
67.995917949 3929.0
68.000841805 4468.0
68.005765661 4621.0
68.010689517 5116.0
68.015613373 5595.0
68.020537229 6137.0
68.025461085 6798.0
68.030384941 7722.0
68.035308797 8864.0
68.040232653 10020.0
68.045156509 11430.0
68.050080365 13409.0
68.055004221 15921.0
68.059928077 19602.0
68.064851933 24362.0
68.069775789 31314.0
68.074699645 42191.0
68.079623501 57814.0
68.084547357 78532.0
68.089471213 100109.0
68.094395069 119572.0
68.099318925 134392.0
68.104242781 144752.0
68.109166637 150304.0
68.114090493 154370.0
68.119014349 154181.0
68.123938205 150034.0
68.128862061 140111.0
68.133785917 123643.0
68.138709773 102670.0
68.143633629 80500.0
68.148557486 63002.0
68.153481342 48865.0
68.158405198 39194.0
68.163329054 30960.0
68.168252910 25305.0
68.173176766 20574.0
68.178100622 17262.0
68.183024478 14767.0
68.187948334 12666.0
68.192872190 11134.0
68.197796046 9957.0
68.202719902 9122.0
68.207643758 8514.0
68.212567614 8234.0
68.217491470 7893.0
68.222415326 8074.0
68.227339182 8105.0
68.232263038 8609.0
68.237186894 9155.0
68.242110750 9892.0
68.247034606 11254.0
68.251958462 12951.0
68.256882318 15083.0
68.261806174 18678.0
68.266730030 23865.0
68.271653886 31200.0
68.276577742 39303.0
68.281501598 48617.0
68.286425454 57409.0
68.291349310 64940.0
68.296273166 70701.0
68.301197022 74675.0
68.306120878 76626.0
68.311044734 76307.0
68.315968590 74803.0
68.320892446 70313.0
68.325816302 62933.0
68.330740158 54425.0
68.335664014 44516.0
68.340587870 36019.0
68.345511726 29233.0
68.350435582 22982.0
68.355359438 18037.0
68.360283294 14925.0
68.365207150 12099.0
68.370131006 9964.0
68.375054862 8430.0
68.379978718 7167.0
68.384902574 6135.0
68.389826430 5623.0
68.394750286 4852.0
68.399674142 4389.0
68.404597998 4013.0
68.409521854 3609.0
68.414445710 3248.0
68.419369566 3166.0
68.424293422 2903.0
68.429217278 2721.0
68.434141134 2489.0
68.439064990 2376.0
68.443988846 2273.0
68.448912702 2179.0
68.453836558 2033.0
68.458760414 1990.0
68.463684270 1903.0
68.468608126 1814.0
68.473531982 1732.0
68.478455838 1664.0
68.483379694 1596.0
68.488303550 1653.0
68.493227406 1503.0
68.498151262 1436.0
68.503075118 1429.0
68.507998974 1371.0
68.512922830 1340.0
68.517846687 1247.0
68.522770543 1248.0
68.527694399 1261.0
68.532618255 1155.0
68.537542111 1088.0
68.542465967 1114.0
68.547389823 1130.0
68.552313679 1087.0
68.557237535 1033.0
68.562161391 979.0
68.567085247 983.0
68.572009103 964.0
68.576932959 910.0
68.581856815 852.0
68.586780671 893.0
68.591704527 857.0
68.596628383 853.0
68.601552239 800.0
68.606476095 798.0
68.611399951 806.0
68.616323807 751.0
68.621247663 698.0
68.626171519 748.0
68.631095375 691.0
68.636019231 713.0
68.640943087 725.0
68.645866943 681.0
68.650790799 701.0
68.655714655 651.0
68.660638511 654.0
68.665562367 687.0
68.670486223 649.0
68.675410079 620.0
68.680333935 606.0
68.685257791 620.0
68.690181647 608.0
68.695105503 592.0
68.700029359 550.0
68.704953215 577.0
68.709877071 545.0
68.714800927 563.0
68.719724783 558.0
68.724648639 522.0
68.729572495 536.0
68.734496351 519.0
68.739420207 517.0
68.744344063 544.0
68.749267919 502.0
68.754191775 498.0
68.759115631 490.0
68.764039487 472.0
68.768963343 475.0
68.773887199 445.0
68.778811055 419.0
68.783734911 433.0
68.788658767 438.0
68.793582623 420.0
68.798506479 368.0
68.803430335 436.0
68.808354191 404.0
68.813278047 376.0
68.818201903 408.0
68.823125759 411.0
68.828049615 424.0
68.832973471 390.0
68.837897327 382.0
68.842821183 400.0
68.847745039 405.0
68.852668895 379.0
68.857592751 348.0
68.862516607 365.0
68.867440463 329.0
68.872364319 361.0
68.877288175 351.0
68.882212031 352.0
68.887135887 317.0
68.892059744 352.0
68.896983600 355.0
68.901907456 338.0
68.906831312 370.0
68.911755168 352.0
68.916679024 347.0
68.921602880 355.0
68.926526736 346.0
68.931450592 330.0
68.936374448 326.0
68.941298304 320.0
68.946222160 329.0
68.951146016 331.0
68.956069872 327.0
68.960993728 302.0
68.965917584 310.0
68.970841440 325.0
68.975765296 315.0
68.980689152 267.0
68.985613008 304.0
68.990536864 280.0
68.995460720 297.0
69.000384576 286.0
69.005308432 296.0
69.010232288 290.0
69.015156144 268.0
69.020080000 288.0
69.025003856 276.0
69.029927712 306.0
69.034851568 214.0
69.039775424 258.0
69.044699280 280.0
69.049623136 263.0
69.054546992 273.0
69.059470848 279.0
69.064394704 268.0
69.069318560 216.0
69.074242416 271.0
69.079166272 216.0
69.084090128 217.0
69.089013984 267.0
69.093937840 214.0
69.098861696 213.0
69.103785552 205.0
69.108709408 203.0
69.113633264 203.0
69.118557120 200.0
69.123480976 176.0
69.128404832 215.0
69.133328688 205.0
69.138252544 198.0
69.143176400 205.0
69.148100256 206.0
69.153024112 190.0
69.157947968 193.0
69.162871824 195.0
69.167795680 189.0
69.172719536 183.0
69.177643392 161.0
69.182567248 197.0
69.187491104 185.0
69.192414960 170.0
69.197338816 202.0
69.202262672 173.0
69.207186528 191.0
69.212110384 187.0
69.217034240 176.0
69.221958096 175.0
69.226881952 163.0
69.231805808 176.0
69.236729664 170.0
69.241653520 163.0
69.246577376 172.0
69.251501232 165.0
69.256425088 169.0
69.261348945 171.0
69.266272801 151.0
69.271196657 172.0
69.276120513 155.0
69.281044369 162.0
69.285968225 180.0
69.290892081 153.0
69.295815937 140.0
69.300739793 163.0
69.305663649 180.0
69.310587505 130.0
69.315511361 151.0
69.320435217 149.0
69.325359073 122.0
69.330282929 144.0
69.335206785 153.0
69.340130641 159.0
69.345054497 173.0
69.349978353 146.0
69.354902209 125.0
69.359826065 127.0
69.364749921 139.0
69.369673777 153.0
69.374597633 120.0
69.379521489 148.0
69.384445345 131.0
69.389369201 131.0
69.394293057 118.0
69.399216913 124.0
69.404140769 128.0
69.409064625 134.0
69.413988481 127.0
69.418912337 116.0
69.423836193 121.0
69.428760049 100.0
69.433683905 111.0
69.438607761 102.0
69.443531617 108.0
69.448455473 106.0
69.453379329 120.0
69.458303185 119.0
69.463227041 129.0
69.468150897 95.0
69.473074753 108.0
69.477998609 109.0
69.482922465 106.0
69.487846321 136.0
69.492770177 124.0
69.497694033 110.0
69.502617889 111.0
69.507541745 115.0
69.512465601 103.0
69.517389457 105.0
69.522313313 97.0
69.527237169 108.0
69.532161025 95.0
69.537084881 106.0
69.542008737 77.0
69.546932593 81.0
69.551856449 87.0
69.556780305 92.0
69.561704161 100.0
69.566628017 93.0
69.571551873 110.0
69.576475729 95.0
69.581399585 80.0
69.586323441 82.0
69.591247297 92.0
69.596171153 102.0
69.601095009 85.0
69.606018865 88.0
69.610942721 85.0
69.615866577 99.0
69.620790433 100.0
69.625714289 78.0
69.630638146 94.0
69.635562002 77.0
69.640485858 80.0
69.645409714 75.0
69.650333570 85.0
69.655257426 81.0
69.660181282 87.0
69.665105138 81.0
69.670028994 83.0
69.674952850 88.0
69.679876706 101.0
69.684800562 79.0
69.689724418 83.0
69.694648274 63.0
69.699572130 78.0
69.704495986 78.0
69.709419842 74.0
69.714343698 72.0
69.719267554 93.0
69.724191410 97.0
69.729115266 81.0
69.734039122 72.0
69.738962978 64.0
69.743886834 80.0
69.748810690 88.0
69.753734546 78.0
69.758658402 92.0
69.763582258 68.0
69.768506114 86.0
69.773429970 79.0
69.778353826 63.0
69.783277682 81.0
69.788201538 74.0
69.793125394 60.0
69.798049250 72.0
69.802973106 67.0
69.807896962 77.0
69.812820818 73.0
69.817744674 75.0
69.822668530 72.0
69.827592386 69.0
69.832516242 56.0
69.837440098 71.0
69.842363954 58.0
69.847287810 54.0
69.852211666 56.0
69.857135522 70.0
69.862059378 73.0
69.866983234 75.0
69.871907090 77.0
69.876830946 53.0
69.881754802 78.0
69.886678658 76.0
69.891602514 49.0
69.896526370 63.0
69.901450226 56.0
69.906374082 63.0
69.911297938 65.0
69.916221794 72.0
69.921145650 65.0
69.926069506 65.0
69.930993362 65.0
69.935917218 72.0
69.940841074 74.0
69.945764930 66.0
69.950688786 51.0
69.955612642 56.0
69.960536498 63.0
69.965460354 64.0
69.970384210 49.0
69.975308066 56.0
69.980231922 49.0
69.985155778 52.0
69.990079634 58.0
69.995003490 53.0
69.999927347 55.0
70.004851203 46.0
70.009775059 67.0
70.014698915 38.0
70.019622771 62.0
70.024546627 60.0
70.029470483 56.0
70.034394339 60.0
70.039318195 49.0
70.044242051 56.0
70.049165907 66.0
70.054089763 49.0
70.059013619 46.0
70.063937475 47.0
70.068861331 64.0
70.073785187 48.0
70.078709043 59.0
70.083632899 50.0
70.088556755 59.0
70.093480611 50.0
70.098404467 39.0
70.103328323 47.0
70.108252179 52.0
70.113176035 34.0
70.118099891 45.0
70.123023747 58.0
70.127947603 52.0
70.132871459 51.0
70.137795315 40.0
70.142719171 46.0
70.147643027 41.0
70.152566883 51.0
70.157490739 43.0
70.162414595 45.0
70.167338451 49.0
70.172262307 41.0
70.177186163 45.0
70.182110019 50.0
70.187033875 40.0
70.191957731 45.0
70.196881587 44.0
70.201805443 41.0
70.206729299 38.0
70.211653155 46.0
70.216577011 47.0
70.221500867 46.0
70.226424723 45.0
70.231348579 45.0
70.236272435 47.0
70.241196291 51.0
70.246120147 40.0
70.251044003 37.0
70.255967859 43.0
70.260891715 42.0
70.265815571 31.0
70.270739427 34.0
70.275663283 35.0
70.280587139 38.0
70.285510995 37.0
70.290434851 32.0
70.295358707 37.0
70.300282563 36.0
70.305206419 46.0
70.310130275 45.0
70.315054131 44.0
70.319977987 39.0
70.324901843 45.0
70.329825699 41.0
70.334749555 33.0
70.339673411 31.0
70.344597267 35.0
70.349521123 39.0
70.354444979 43.0
70.359368835 38.0
70.364292691 34.0
70.369216548 44.0
70.374140404 39.0
70.379064260 37.0
70.383988116 48.0
70.388911972 37.0
70.393835828 38.0
70.398759684 36.0
70.403683540 48.0
70.408607396 46.0
70.413531252 33.0
70.418455108 45.0
70.423378964 31.0
70.428302820 36.0
70.433226676 42.0
70.438150532 33.0
70.443074388 38.0
70.447998244 36.0
70.452922100 45.0
70.457845956 37.0
70.462769812 34.0
70.467693668 24.0
70.472617524 45.0
70.477541380 25.0
70.482465236 33.0
70.487389092 42.0
70.492312948 33.0
70.497236804 44.0
70.502160660 38.0
70.507084516 35.0
70.512008372 30.0
70.516932228 29.0
70.521856084 30.0
70.526779940 38.0
70.531703796 37.0
70.536627652 36.0
70.541551508 27.0
70.546475364 30.0
70.551399220 35.0
70.556323076 34.0
70.561246932 29.0
70.566170788 36.0
70.571094644 24.0
70.576018500 25.0
70.580942356 34.0
70.585866212 27.0
70.590790068 29.0
70.595713924 24.0
70.600637780 29.0
70.605561636 25.0
70.610485492 30.0
70.615409348 34.0
70.620333204 33.0
70.625257060 29.0
70.630180916 43.0
70.635104772 38.0
70.640028628 37.0
70.644952484 26.0
70.649876340 36.0
70.654800196 39.0
70.659724052 25.0
70.664647908 24.0
70.669571764 33.0
70.674495620 22.0
70.679419476 43.0
70.684343332 15.0
70.689267188 41.0
70.694191044 42.0
70.699114900 32.0
70.704038756 31.0
70.708962612 32.0
70.713886468 29.0
70.718810324 35.0
70.723734180 25.0
70.728658036 31.0
70.733581892 23.0
70.738505748 21.0
70.743429605 39.0
70.748353461 37.0
70.753277317 29.0
70.758201173 27.0
70.763125029 28.0
70.768048885 29.0
70.772972741 22.0
70.777896597 35.0
70.782820453 35.0
70.787744309 32.0
70.792668165 33.0
70.797592021 38.0
70.802515877 32.0
70.807439733 25.0
70.812363589 26.0
70.817287445 28.0
70.822211301 18.0
70.827135157 21.0
70.832059013 32.0
70.836982869 34.0
70.841906725 30.0
70.846830581 26.0
70.851754437 35.0
70.856678293 29.0
70.861602149 24.0
70.866526005 31.0
70.871449861 24.0
70.876373717 33.0
70.881297573 24.0
70.886221429 23.0
70.891145285 29.0
70.896069141 23.0
70.900992997 39.0
70.905916853 28.0
70.910840709 36.0
70.915764565 24.0
70.920688421 25.0
70.925612277 32.0
70.930536133 23.0
70.935459989 31.0
70.940383845 30.0
70.945307701 26.0
70.950231557 27.0
70.955155413 29.0
70.960079269 28.0
70.965003125 24.0
70.969926981 32.0
70.974850837 23.0
70.979774693 35.0
70.984698549 30.0
70.989622405 32.0
70.994546261 40.0
70.999470117 25.0
71.004393973 28.0
71.009317829 26.0
71.014241685 28.0
71.019165541 26.0
71.024089397 26.0
71.029013253 22.0
71.033937109 26.0
71.038860965 25.0
71.043784821 25.0
71.048708677 28.0
71.053632533 20.0
71.058556389 17.0
71.063480245 28.0
71.068404101 28.0
71.073327957 26.0
71.078251813 27.0
71.083175669 23.0
71.088099525 24.0
71.093023381 25.0
71.097947237 22.0
71.102871093 21.0
71.107794949 32.0
71.112718806 21.0
71.117642662 29.0
71.122566518 22.0
71.127490374 21.0
71.132414230 26.0
71.137338086 30.0
71.142261942 32.0
71.147185798 25.0
71.152109654 17.0
71.157033510 29.0
71.161957366 22.0
71.166881222 32.0
71.171805078 23.0
71.176728934 19.0
71.181652790 26.0
71.186576646 30.0
71.191500502 24.0
71.196424358 33.0
71.201348214 28.0
71.206272070 36.0
71.211195926 25.0
71.216119782 21.0
71.221043638 20.0
71.225967494 28.0
71.230891350 18.0
71.235815206 37.0
71.240739062 24.0
71.245662918 18.0
71.250586774 31.0
71.255510630 28.0
71.260434486 25.0
71.265358342 18.0
71.270282198 23.0
71.275206054 27.0
71.280129910 26.0
71.285053766 33.0
71.289977622 24.0
71.294901478 30.0
71.299825334 23.0
71.304749190 32.0
71.309673046 17.0
71.314596902 35.0
71.319520758 22.0
71.324444614 24.0
71.329368470 23.0
71.334292326 26.0
71.339216182 22.0
71.344140038 23.0
71.349063894 27.0
71.353987750 25.0
71.358911606 26.0
71.363835462 16.0
71.368759318 15.0
71.373683174 24.0
71.378607030 26.0
71.383530886 27.0
71.388454742 20.0
71.393378598 27.0
71.398302454 17.0
71.403226310 17.0
71.408150166 20.0
71.413074022 20.0
71.417997878 18.0
71.422921734 27.0
71.427845590 18.0
71.432769446 24.0
71.437693302 25.0
71.442617158 24.0
71.447541014 25.0
71.452464870 19.0
71.457388726 22.0
71.462312582 15.0
71.467236438 23.0
71.472160294 19.0
71.477084150 19.0
71.482008007 14.0
71.486931863 19.0
71.491855719 13.0
71.496779575 15.0
71.501703431 19.0
71.506627287 21.0
71.511551143 29.0
71.516474999 17.0
71.521398855 15.0
71.526322711 23.0
71.531246567 17.0
71.536170423 29.0
71.541094279 14.0
71.546018135 24.0
71.550941991 22.0
71.555865847 21.0
71.560789703 19.0
71.565713559 30.0
71.570637415 22.0
71.575561271 23.0
71.580485127 18.0
71.585408983 24.0
71.590332839 18.0
71.595256695 23.0
71.600180551 24.0
71.605104407 21.0
71.610028263 23.0
71.614952119 32.0
71.619875975 18.0
71.624799831 27.0
71.629723687 16.0
71.634647543 21.0
71.639571399 17.0
71.644495255 28.0
71.649419111 19.0
71.654342967 20.0
71.659266823 17.0
71.664190679 21.0
71.669114535 19.0
71.674038391 23.0
71.678962247 19.0
71.683886103 16.0
71.688809959 23.0
71.693733815 16.0
71.698657671 13.0
71.703581527 23.0
71.708505383 25.0
71.713429239 24.0
71.718353095 23.0
71.723276951 22.0
71.728200807 18.0
71.733124663 21.0
71.738048519 19.0
71.742972375 22.0
71.747896231 26.0
71.752820087 13.0
71.757743943 11.0
71.762667799 28.0
71.767591655 19.0
71.772515511 27.0
71.777439367 20.0
71.782363223 15.0
71.787287079 14.0
71.792210935 16.0
71.797134791 17.0
71.802058647 22.0
71.806982503 19.0
71.811906359 17.0
71.816830215 20.0
71.821754071 15.0
71.826677927 27.0
71.831601783 24.0
71.836525639 15.0
71.841449495 21.0
71.846373351 17.0
71.851297208 23.0
71.856221064 18.0
71.861144920 20.0
71.866068776 20.0
71.870992632 21.0
71.875916488 23.0
71.880840344 21.0
71.885764200 15.0
71.890688056 13.0
71.895611912 16.0
71.900535768 26.0
71.905459624 24.0
71.910383480 20.0
71.915307336 18.0
71.920231192 26.0
71.925155048 18.0
71.930078904 17.0
71.935002760 21.0
71.939926616 18.0
71.944850472 11.0
71.949774328 20.0
71.954698184 16.0
71.959622040 22.0
71.964545896 24.0
71.969469752 22.0
71.974393608 20.0
71.979317464 13.0
71.984241320 21.0
71.989165176 15.0
71.994089032 20.0
71.999012888 19.0
72.003936744 16.0
72.008860600 31.0
72.013784456 17.0
72.018708312 13.0
72.023632168 20.0
72.028556024 20.0
72.033479880 10.0
72.038403736 17.0
72.043327592 13.0
72.048251448 25.0
72.053175304 17.0
72.058099160 15.0
72.063023016 21.0
72.067946872 21.0
72.072870728 17.0
72.077794584 20.0
72.082718440 18.0
72.087642296 15.0
72.092566152 21.0
72.097490008 23.0
72.102413864 19.0
72.107337720 17.0
72.112261576 20.0
72.117185432 16.0
72.122109288 17.0
72.127033144 24.0
72.131957000 18.0
72.136880856 22.0
72.141804712 15.0
72.146728568 16.0
72.151652424 22.0
72.156576280 21.0
72.161500136 17.0
72.166423992 26.0
72.171347848 22.0
72.176271704 17.0
72.181195560 15.0
72.186119416 24.0
72.191043272 13.0
72.195967128 21.0
72.200890984 17.0
72.205814840 24.0
72.210738696 22.0
72.215662552 18.0
72.220586409 21.0
72.225510265 13.0
72.230434121 13.0
72.235357977 26.0
72.240281833 16.0
72.245205689 17.0
72.250129545 17.0
72.255053401 18.0
72.259977257 11.0
72.264901113 19.0
72.269824969 16.0
72.274748825 17.0
72.279672681 15.0
72.284596537 14.0
72.289520393 21.0
72.294444249 16.0
72.299368105 18.0
72.304291961 27.0
72.309215817 16.0
72.314139673 21.0
72.319063529 15.0
72.323987385 11.0
72.328911241 14.0
72.333835097 25.0
72.338758953 14.0
72.343682809 15.0
72.348606665 15.0
72.353530521 13.0
72.358454377 17.0
72.363378233 20.0
72.368302089 19.0
72.373225945 24.0
72.378149801 21.0
72.383073657 16.0
72.387997513 17.0
72.392921369 21.0
72.397845225 20.0
72.402769081 18.0
72.407692937 13.0
72.412616793 12.0
72.417540649 21.0
72.422464505 11.0
72.427388361 18.0
72.432312217 16.0
72.437236073 20.0
72.442159929 14.0
72.447083785 19.0
72.452007641 26.0
72.456931497 17.0
72.461855353 14.0
72.466779209 22.0
72.471703065 22.0
72.476626921 13.0
72.481550777 21.0
72.486474633 12.0
72.491398489 17.0
72.496322345 17.0
72.501246201 18.0
72.506170057 18.0
72.511093913 22.0
72.516017769 12.0
72.520941625 27.0
72.525865481 16.0
72.530789337 11.0
72.535713193 15.0
72.540637049 21.0
72.545560905 18.0
72.550484761 12.0
72.555408617 21.0
72.560332473 20.0
72.565256329 16.0
72.570180185 11.0
72.575104041 18.0
72.580027897 11.0
72.584951753 23.0
72.589875609 16.0
72.594799466 12.0
72.599723322 12.0
72.604647178 22.0
72.609571034 20.0
72.614494890 8.0
72.619418746 17.0
72.624342602 11.0
72.629266458 20.0
72.634190314 20.0
72.639114170 11.0
72.644038026 15.0
72.648961882 9.0
72.653885738 15.0
72.658809594 21.0
72.663733450 20.0
72.668657306 21.0
72.673581162 19.0
72.678505018 18.0
72.683428874 19.0
72.688352730 14.0
72.693276586 9.0
72.698200442 11.0
72.703124298 15.0
72.708048154 18.0
72.712972010 14.0
72.717895866 15.0
72.722819722 12.0
72.727743578 16.0
72.732667434 15.0
72.737591290 7.0
72.742515146 15.0
72.747439002 14.0
72.752362858 9.0
72.757286714 9.0
72.762210570 20.0
72.767134426 15.0
72.772058282 20.0
72.776982138 17.0
72.781905994 11.0
72.786829850 21.0
72.791753706 10.0
72.796677562 20.0
72.801601418 11.0
72.806525274 15.0
72.811449130 13.0
72.816372986 18.0
72.821296842 15.0
72.826220698 17.0
72.831144554 17.0
72.836068410 13.0
72.840992266 18.0
72.845916122 15.0
72.850839978 12.0
72.855763834 15.0
72.860687690 15.0
72.865611546 19.0
72.870535402 18.0
72.875459258 15.0
72.880383114 13.0
72.885306970 14.0
72.890230826 18.0
72.895154682 18.0
72.900078538 21.0
72.905002394 17.0
72.909926250 17.0
72.914850106 20.0
72.919773962 13.0
72.924697818 18.0
72.929621674 16.0
72.934545530 14.0
72.939469386 19.0
72.944393242 18.0
72.949317098 13.0
72.954240954 9.0
72.959164810 18.0
72.964088667 19.0
72.969012523 14.0
72.973936379 20.0
72.978860235 14.0
72.983784091 15.0
72.988707947 13.0
72.993631803 15.0
72.998555659 11.0
73.003479515 17.0
73.008403371 24.0
73.013327227 21.0
73.018251083 16.0
73.023174939 18.0
73.028098795 19.0
73.033022651 21.0
73.037946507 14.0
73.042870363 15.0
73.047794219 15.0
73.052718075 13.0
73.057641931 14.0
73.062565787 15.0
73.067489643 21.0
73.072413499 16.0
73.077337355 11.0
73.082261211 15.0
73.087185067 15.0
73.092108923 7.0
73.097032779 18.0
73.101956635 10.0
73.106880491 15.0
73.111804347 12.0
73.116728203 15.0
73.121652059 17.0
73.126575915 11.0
73.131499771 19.0
73.136423627 18.0
73.141347483 14.0
73.146271339 12.0
73.151195195 15.0
73.156119051 13.0
73.161042907 11.0
73.165966763 15.0
73.170890619 18.0
73.175814475 14.0
73.180738331 20.0
73.185662187 16.0
73.190586043 11.0
73.195509899 22.0
73.200433755 24.0
73.205357611 14.0
73.210281467 13.0
73.215205323 17.0
73.220129179 9.0
73.225053035 16.0
73.229976891 9.0
73.234900747 8.0
73.239824603 13.0
73.244748459 16.0
73.249672315 13.0
73.254596171 16.0
73.259520027 17.0
73.264443883 22.0
73.269367739 12.0
73.274291595 10.0
73.279215451 18.0
73.284139307 15.0
73.289063163 14.0
73.293987019 12.0
73.298910875 21.0
73.303834731 15.0
73.308758587 14.0
73.313682443 13.0
73.318606299 11.0
73.323530155 20.0
73.328454011 13.0
73.333377868 16.0
73.338301724 11.0
73.343225580 12.0
73.348149436 17.0
73.353073292 18.0
73.357997148 21.0
73.362921004 18.0
73.367844860 6.0
73.372768716 14.0
73.377692572 17.0
73.382616428 15.0
73.387540284 17.0
73.392464140 18.0
73.397387996 13.0
73.402311852 15.0
73.407235708 16.0
73.412159564 9.0
73.417083420 7.0
73.422007276 16.0
73.426931132 13.0
73.431854988 14.0
73.436778844 11.0
73.441702700 19.0
73.446626556 16.0
73.451550412 12.0
73.456474268 13.0
73.461398124 21.0
73.466321980 16.0
73.471245836 16.0
73.476169692 12.0
73.481093548 12.0
73.486017404 20.0
73.490941260 23.0
73.495865116 14.0
73.500788972 17.0
73.505712828 15.0
73.510636684 11.0
73.515560540 17.0
73.520484396 13.0
73.525408252 14.0
73.530332108 17.0
73.535255964 18.0
73.540179820 10.0
73.545103676 9.0
73.550027532 16.0
73.554951388 20.0
73.559875244 14.0
73.564799100 14.0
73.569722956 4.0
73.574646812 13.0
73.579570668 21.0
73.584494524 14.0
73.589418380 11.0
73.594342236 8.0
73.599266092 8.0
73.604189948 17.0
73.609113804 13.0
73.614037660 21.0
73.618961516 17.0
73.623885372 18.0
73.628809228 21.0
73.633733084 15.0
73.638656940 7.0
73.643580796 16.0
73.648504652 11.0
73.653428508 15.0
73.658352364 11.0
73.663276220 17.0
73.668200076 14.0
73.673123932 7.0
73.678047788 14.0
73.682971644 9.0
73.687895500 14.0
73.692819356 14.0
73.697743212 20.0
73.702667069 13.0
73.707590925 11.0
73.712514781 11.0
73.717438637 9.0
73.722362493 16.0
73.727286349 19.0
73.732210205 15.0
73.737134061 9.0
73.742057917 23.0
73.746981773 12.0
73.751905629 12.0
73.756829485 8.0
73.761753341 16.0
73.766677197 12.0
73.771601053 18.0
73.776524909 17.0
73.781448765 12.0
73.786372621 12.0
73.791296477 15.0
73.796220333 16.0
73.801144189 17.0
73.806068045 20.0
73.810991901 12.0
73.815915757 12.0
73.820839613 19.0
73.825763469 23.0
73.830687325 5.0
73.835611181 16.0
73.840535037 12.0
73.845458893 28.0
73.850382749 14.0
73.855306605 10.0
73.860230461 16.0
73.865154317 19.0
73.870078173 11.0
73.875002029 12.0
73.879925885 16.0
73.884849741 11.0
73.889773597 18.0
73.894697453 13.0
73.899621309 11.0
73.904545165 12.0
73.909469021 17.0
73.914392877 9.0
73.919316733 10.0
73.924240589 14.0
73.929164445 14.0
73.934088301 20.0
73.939012157 13.0
73.943936013 13.0
73.948859869 21.0
73.953783725 19.0
73.958707581 13.0
73.963631437 14.0
73.968555293 15.0
73.973479149 10.0
73.978403005 14.0
73.983326861 6.0
73.988250717 13.0
73.993174573 16.0
73.998098429 19.0
74.003022285 10.0
74.007946141 16.0
74.012869997 10.0
74.017793853 8.0
74.022717709 8.0
74.027641565 16.0
74.032565421 15.0
74.037489277 12.0
74.042413133 6.0
74.047336989 17.0
74.052260845 13.0
74.057184701 16.0
74.062108557 13.0
74.067032413 8.0
74.071956270 9.0
74.076880126 16.0
74.081803982 10.0
74.086727838 14.0
74.091651694 13.0
74.096575550 4.0
74.101499406 14.0
74.106423262 13.0
74.111347118 9.0
74.116270974 18.0
74.121194830 11.0
74.126118686 14.0
74.131042542 14.0
74.135966398 19.0
74.140890254 11.0
74.145814110 18.0
74.150737966 18.0
74.155661822 15.0
74.160585678 9.0
74.165509534 9.0
74.170433390 13.0
74.175357246 9.0
74.180281102 17.0
74.185204958 10.0
74.190128814 10.0
74.195052670 14.0
74.199976526 15.0
74.204900382 6.0
74.209824238 16.0
74.214748094 13.0
74.219671950 22.0
74.224595806 6.0
74.229519662 12.0
74.234443518 12.0
74.239367374 17.0
74.244291230 16.0
74.249215086 18.0
74.254138942 12.0
74.259062798 14.0
74.263986654 15.0
74.268910510 15.0
74.273834366 15.0
74.278758222 14.0
74.283682078 13.0
74.288605934 14.0
74.293529790 19.0
74.298453646 17.0
74.303377502 19.0
74.308301358 14.0
74.313225214 13.0
74.318149070 13.0
74.323072926 8.0
74.327996782 12.0
74.332920638 5.0
74.337844494 11.0
74.342768350 12.0
74.347692206 15.0
74.352616062 9.0
74.357539918 21.0
74.362463774 15.0
74.367387630 11.0
74.372311486 16.0
74.377235342 14.0
74.382159198 21.0
74.387083054 13.0
74.392006910 19.0
74.396930766 13.0
74.401854622 16.0
74.406778478 11.0
74.411702334 16.0
74.416626190 10.0
74.421550046 11.0
74.426473902 11.0
74.431397758 12.0
74.436321614 10.0
74.441245470 14.0
74.446169327 10.0
74.451093183 20.0
74.456017039 7.0
74.460940895 13.0
74.465864751 11.0
74.470788607 13.0
74.475712463 12.0
74.480636319 20.0
74.485560175 8.0
74.490484031 14.0
74.495407887 12.0
74.500331743 11.0
74.505255599 22.0
74.510179455 14.0
74.515103311 13.0
74.520027167 17.0
74.524951023 14.0
74.529874879 13.0
74.534798735 9.0
74.539722591 15.0
74.544646447 14.0
74.549570303 13.0
74.554494159 11.0
74.559418015 12.0
74.564341871 14.0
74.569265727 13.0
74.574189583 12.0
74.579113439 11.0
74.584037295 8.0
74.588961151 12.0
74.593885007 17.0
74.598808863 8.0
74.603732719 10.0
74.608656575 17.0
74.613580431 15.0
74.618504287 4.0
74.623428143 15.0
74.628351999 13.0
74.633275855 14.0
74.638199711 19.0
74.643123567 9.0
74.648047423 9.0
74.652971279 10.0
74.657895135 19.0
74.662818991 11.0
74.667742847 19.0
74.672666703 16.0
74.677590559 9.0
74.682514415 7.0
74.687438271 14.0
74.692362127 16.0
74.697285983 12.0
74.702209839 16.0
74.707133695 18.0
74.712057551 11.0
74.716981407 12.0
74.721905263 13.0
74.726829119 16.0
74.731752975 15.0
74.736676831 20.0
74.741600687 20.0
74.746524543 10.0
74.751448399 4.0
74.756372255 14.0
74.761296111 17.0
74.766219967 18.0
74.771143823 8.0
74.776067679 12.0
74.780991535 15.0
74.785915391 20.0
74.790839247 16.0
74.795763103 13.0
74.800686959 7.0
74.805610815 11.0
74.810534671 9.0
74.815458528 12.0
74.820382384 13.0
74.825306240 8.0
74.830230096 15.0
74.835153952 20.0
74.840077808 8.0
74.845001664 17.0
74.849925520 17.0
74.854849376 17.0
74.859773232 13.0
74.864697088 16.0
74.869620944 11.0
74.874544800 6.0
74.879468656 12.0
74.884392512 16.0
74.889316368 7.0
74.894240224 7.0
74.899164080 11.0
74.904087936 17.0
74.909011792 13.0
74.913935648 15.0
74.918859504 14.0
74.923783360 7.0
74.928707216 10.0
74.933631072 11.0
74.938554928 16.0
74.943478784 13.0
74.948402640 9.0
74.953326496 14.0
74.958250352 10.0
74.963174208 14.0
74.968098064 17.0
74.973021920 0.0
74.977945776 11.0
74.982869632 11.0
74.987793488 12.0
74.992717344 18.0
74.997641200 14.0
