55.001861930 14.0
55.006785786 15.0
55.011709642 5.0
55.016633498 10.0
55.021557354 12.0
55.026481210 11.0
55.031405066 10.0
55.036328922 11.0
55.041252778 11.0
55.046176634 10.0
55.051100490 10.0
55.056024346 10.0
55.060948202 10.0
55.065872058 7.0
55.070795914 13.0
55.075719770 6.0
55.080643626 5.0
55.085567482 12.0
55.090491338 12.0
55.095415194 10.0
55.100339050 16.0
55.105262906 15.0
55.110186762 18.0
55.115110618 13.0
55.120034474 12.0
55.124958330 13.0
55.129882186 14.0
55.134806042 16.0
55.139729898 15.0
55.144653754 9.0
55.149577610 14.0
55.154501466 10.0
55.159425322 14.0
55.164349178 22.0
55.169273034 15.0
55.174196890 10.0
55.179120746 18.0
55.184044602 5.0
55.188968459 8.0
55.193892315 12.0
55.198816171 16.0
55.203740027 6.0
55.208663883 15.0
55.213587739 12.0
55.218511595 10.0
55.223435451 10.0
55.228359307 9.0
55.233283163 9.0
55.238207019 10.0
55.243130875 4.0
55.248054731 13.0
55.252978587 3.0
55.257902443 20.0
55.262826299 12.0
55.267750155 5.0
55.272674011 7.0
55.277597867 11.0
55.282521723 20.0
55.287445579 16.0
55.292369435 10.0
55.297293291 11.0
55.302217147 11.0
55.307141003 16.0
55.312064859 11.0
55.316988715 11.0
55.321912571 7.0
55.326836427 11.0
55.331760283 5.0
55.336684139 10.0
55.341607995 9.0
55.346531851 10.0
55.351455707 10.0
55.356379563 14.0
55.361303419 10.0
55.366227275 11.0
55.371151131 13.0
55.376074987 4.0
55.380998843 5.0
55.385922699 10.0
55.390846555 12.0
55.395770411 13.0
55.400694267 8.0
55.405618123 8.0
55.410541979 8.0
55.415465835 9.0
55.420389691 13.0
55.425313547 9.0
55.430237403 13.0
55.435161259 13.0
55.440085115 13.0
55.445008971 14.0
55.449932827 11.0
55.454856683 9.0
55.459780539 10.0
55.464704395 11.0
55.469628251 11.0
55.474552107 9.0
55.479475963 16.0
55.484399819 10.0
55.489323675 6.0
55.494247531 11.0
55.499171387 12.0
55.504095243 13.0
55.509019099 16.0
55.513942955 11.0
55.518866811 20.0
55.523790667 20.0
55.528714523 6.0
55.533638379 13.0
55.538562235 10.0
55.543486091 9.0
55.548409947 10.0
55.553333803 24.0
55.558257660 5.0
55.563181516 11.0
55.568105372 13.0
55.573029228 8.0
55.577953084 10.0
55.582876940 9.0
55.587800796 6.0
55.592724652 11.0
55.597648508 12.0
55.602572364 13.0
55.607496220 11.0
55.612420076 10.0
55.617343932 4.0
55.622267788 10.0
55.627191644 9.0
55.632115500 9.0
55.637039356 8.0
55.641963212 12.0
55.646887068 8.0
55.651810924 13.0
55.656734780 12.0
55.661658636 13.0
55.666582492 12.0
55.671506348 8.0
55.676430204 14.0
55.681354060 14.0
55.686277916 13.0
55.691201772 14.0
55.696125628 9.0
55.701049484 6.0
55.705973340 9.0
55.710897196 11.0
55.715821052 8.0
55.720744908 12.0
55.725668764 9.0
55.730592620 11.0
55.735516476 9.0
55.740440332 10.0
55.745364188 7.0
55.750288044 5.0
55.755211900 7.0
55.760135756 13.0
55.765059612 9.0
55.769983468 13.0
55.774907324 11.0
55.779831180 11.0
55.784755036 9.0
55.789678892 16.0
55.794602748 8.0
55.799526604 6.0
55.804450460 9.0
55.809374316 7.0
55.814298172 16.0
55.819222028 9.0
55.824145884 15.0
55.829069740 18.0
55.833993596 10.0
55.838917452 13.0
55.843841308 17.0
55.848765164 11.0
55.853689020 15.0
55.858612876 6.0
55.863536732 8.0
55.868460588 13.0
55.873384444 14.0
55.878308300 8.0
55.883232156 8.0
55.888156012 14.0
55.893079868 13.0
55.898003724 8.0
55.902927580 14.0
55.907851436 12.0
55.912775292 11.0
55.917699148 14.0
55.922623004 5.0
55.927546860 12.0
55.932470717 13.0
55.937394573 16.0
55.942318429 10.0
55.947242285 9.0
55.952166141 15.0
55.957089997 8.0
55.962013853 14.0
55.966937709 10.0
55.971861565 13.0
55.976785421 15.0
55.981709277 10.0
55.986633133 11.0
55.991556989 8.0
55.996480845 10.0
56.001404701 15.0
56.006328557 12.0
56.011252413 18.0
56.016176269 13.0
56.021100125 8.0
56.026023981 12.0
56.030947837 8.0
56.035871693 16.0
56.040795549 11.0
56.045719405 5.0
56.050643261 12.0
56.055567117 19.0
56.060490973 9.0
56.065414829 14.0
56.070338685 12.0
56.075262541 19.0
56.080186397 11.0
56.085110253 10.0
56.090034109 13.0
56.094957965 14.0
56.099881821 11.0
56.104805677 7.0
56.109729533 7.0
56.114653389 18.0
56.119577245 13.0
56.124501101 8.0
56.129424957 9.0
56.134348813 13.0
56.139272669 9.0
56.144196525 23.0
56.149120381 11.0
56.154044237 13.0
56.158968093 13.0
56.163891949 7.0
56.168815805 8.0
56.173739661 16.0
56.178663517 17.0
56.183587373 18.0
56.188511229 10.0
56.193435085 13.0
56.198358941 8.0
56.203282797 12.0
56.208206653 4.0
56.213130509 5.0
56.218054365 11.0
56.222978221 5.0
56.227902077 7.0
56.232825933 8.0
56.237749789 9.0
56.242673645 7.0
56.247597501 12.0
56.252521357 12.0
56.257445213 13.0
56.262369069 12.0
56.267292925 6.0
56.272216781 14.0
56.277140637 14.0
56.282064493 19.0
56.286988349 10.0
56.291912205 12.0
56.296836061 15.0
56.301759918 10.0
56.306683774 7.0
56.311607630 8.0
56.316531486 11.0
56.321455342 22.0
56.326379198 20.0
56.331303054 12.0
56.336226910 11.0
56.341150766 12.0
56.346074622 14.0
56.350998478 11.0
56.355922334 13.0
56.360846190 5.0
56.365770046 15.0
56.370693902 13.0
56.375617758 12.0
56.380541614 15.0
56.385465470 5.0
56.390389326 14.0
56.395313182 8.0
56.400237038 14.0
56.405160894 4.0
56.410084750 15.0
56.415008606 13.0
56.419932462 14.0
56.424856318 19.0
56.429780174 12.0
56.434704030 6.0
56.439627886 5.0
56.444551742 9.0
56.449475598 12.0
56.454399454 15.0
56.459323310 11.0
56.464247166 10.0
56.469171022 4.0
56.474094878 14.0
56.479018734 6.0
56.483942590 11.0
56.488866446 14.0
56.493790302 8.0
56.498714158 13.0
56.503638014 9.0
56.508561870 15.0
56.513485726 4.0
56.518409582 14.0
56.523333438 8.0
56.528257294 13.0
56.533181150 7.0
56.538105006 12.0
56.543028862 10.0
56.547952718 8.0
56.552876574 12.0
56.557800430 10.0
56.562724286 5.0
56.567648142 13.0
56.572571998 12.0
56.577495854 10.0
56.582419710 15.0
56.587343566 15.0
56.592267422 15.0
56.597191278 10.0
56.602115134 15.0
56.607038990 12.0
56.611962846 20.0
56.616886702 8.0
56.621810558 14.0
56.626734414 11.0
56.631658270 10.0
56.636582126 9.0
56.641505982 15.0
56.646429838 15.0
56.651353694 15.0
56.656277550 13.0
56.661201406 11.0
56.666125262 8.0
56.671049119 4.0
56.675972975 13.0
56.680896831 19.0
56.685820687 8.0
56.690744543 11.0
56.695668399 12.0
56.700592255 10.0
56.705516111 16.0
56.710439967 10.0
56.715363823 12.0
56.720287679 15.0
56.725211535 7.0
56.730135391 13.0
56.735059247 15.0
56.739983103 18.0
56.744906959 12.0
56.749830815 14.0
56.754754671 14.0
56.759678527 8.0
56.764602383 12.0
56.769526239 9.0
56.774450095 6.0
56.779373951 18.0
56.784297807 12.0
56.789221663 16.0
56.794145519 11.0
56.799069375 16.0
56.803993231 11.0
56.808917087 12.0
56.813840943 10.0
56.818764799 9.0
56.823688655 6.0
56.828612511 7.0
56.833536367 14.0
56.838460223 8.0
56.843384079 13.0
56.848307935 15.0
56.853231791 18.0
56.858155647 11.0
56.863079503 8.0
56.868003359 11.0
56.872927215 15.0
56.877851071 12.0
56.882774927 19.0
56.887698783 12.0
56.892622639 12.0
56.897546495 12.0
56.902470351 14.0
56.907394207 6.0
56.912318063 15.0
56.917241919 11.0
56.922165775 18.0
56.927089631 8.0
56.932013487 8.0
56.936937343 8.0
56.941861199 21.0
56.946785055 12.0
56.951708911 18.0
56.956632767 12.0
56.961556623 15.0
56.966480479 24.0
56.971404335 9.0
56.976328191 7.0
56.981252047 11.0
56.986175903 6.0
56.991099759 10.0
56.996023615 10.0
57.000947471 13.0
57.005871327 12.0
57.010795183 13.0
57.015719039 18.0
57.020642895 11.0
57.025566751 19.0
57.030490607 17.0
57.035414463 10.0
57.040338320 14.0
57.045262176 15.0
57.050186032 12.0
57.055109888 14.0
57.060033744 18.0
57.064957600 10.0
57.069881456 14.0
57.074805312 16.0
57.079729168 15.0
57.084653024 18.0
57.089576880 14.0
57.094500736 23.0
57.099424592 11.0
57.104348448 15.0
57.109272304 19.0
57.114196160 18.0
57.119120016 13.0
57.124043872 14.0
57.128967728 11.0
57.133891584 16.0
57.138815440 12.0
57.143739296 12.0
57.148663152 15.0
57.153587008 12.0
57.158510864 13.0
57.163434720 11.0
57.168358576 22.0
57.173282432 16.0
57.178206288 15.0
57.183130144 14.0
57.188054000 13.0
57.192977856 17.0
57.197901712 12.0
57.202825568 16.0
57.207749424 16.0
57.212673280 19.0
57.217597136 15.0
57.222520992 22.0
57.227444848 19.0
57.232368704 19.0
57.237292560 26.0
57.242216416 16.0
57.247140272 9.0
57.252064128 14.0
57.256987984 17.0
57.261911840 20.0
57.266835696 19.0
57.271759552 19.0
57.276683408 14.0
57.281607264 21.0
57.286531120 22.0
57.291454976 22.0
57.296378832 21.0
57.301302688 23.0
57.306226544 19.0
57.311150400 17.0
57.316074256 25.0
57.320998112 17.0
57.325921968 19.0
57.330845824 19.0
57.335769680 27.0
57.340693536 22.0
57.345617392 17.0
57.350541248 26.0
57.355465104 24.0
57.360388960 20.0
57.365312816 20.0
57.370236672 16.0
57.375160528 22.0
57.380084384 19.0
57.385008240 23.0
57.389932096 28.0
57.394855952 27.0
57.399779808 24.0
57.404703664 28.0
57.409627521 29.0
57.414551377 25.0
57.419475233 30.0
57.424399089 23.0
57.429322945 26.0
57.434246801 24.0
57.439170657 38.0
57.444094513 30.0
57.449018369 34.0
57.453942225 33.0
57.458866081 35.0
57.463789937 42.0
57.468713793 29.0
57.473637649 27.0
57.478561505 25.0
57.483485361 22.0
57.488409217 31.0
57.493333073 28.0
57.498256929 41.0
57.503180785 33.0
57.508104641 28.0
57.513028497 29.0
57.517952353 31.0
57.522876209 26.0
57.527800065 36.0
57.532723921 39.0
57.537647777 26.0
57.542571633 22.0
57.547495489 30.0
57.552419345 30.0
57.557343201 23.0
57.562267057 22.0
57.567190913 28.0
57.572114769 17.0
57.577038625 24.0
57.581962481 22.0
57.586886337 20.0
57.591810193 20.0
57.596734049 24.0
57.601657905 23.0
57.606581761 27.0
57.611505617 24.0
57.616429473 26.0
57.621353329 26.0
57.626277185 19.0
57.631201041 26.0
57.636124897 15.0
57.641048753 17.0
57.645972609 26.0
57.650896465 12.0
57.655820321 22.0
57.660744177 16.0
57.665668033 25.0
57.670591889 25.0
57.675515745 26.0
57.680439601 20.0
57.685363457 21.0
57.690287313 19.0
57.695211169 18.0
57.700135025 18.0
57.705058881 16.0
57.709982737 20.0
57.714906593 17.0
57.719830449 15.0
57.724754305 22.0
57.729678161 15.0
57.734602017 20.0
57.739525873 13.0
57.744449729 19.0
57.749373585 8.0
57.754297441 19.0
57.759221297 17.0
57.764145153 21.0
57.769069009 13.0
57.773992865 20.0
57.778916721 12.0
57.783840578 15.0
57.788764434 13.0
57.793688290 11.0
57.798612146 17.0
57.803536002 12.0
57.808459858 19.0
57.813383714 17.0
57.818307570 16.0
57.823231426 11.0
57.828155282 13.0
57.833079138 12.0
57.838002994 6.0
57.842926850 15.0
57.847850706 17.0
57.852774562 18.0
57.857698418 11.0
57.862622274 15.0
57.867546130 17.0
57.872469986 13.0
57.877393842 17.0
57.882317698 13.0
57.887241554 14.0
57.892165410 12.0
57.897089266 16.0
57.902013122 10.0
57.906936978 14.0
57.911860834 19.0
57.916784690 11.0
57.921708546 16.0
57.926632402 15.0
57.931556258 23.0
57.936480114 16.0
57.941403970 15.0
57.946327826 11.0
57.951251682 9.0
57.956175538 15.0
57.961099394 13.0
57.966023250 14.0
57.970947106 9.0
57.975870962 10.0
57.980794818 7.0
57.985718674 13.0
57.990642530 10.0
57.995566386 20.0
58.000490242 15.0
58.005414098 14.0
58.010337954 10.0
58.015261810 15.0
58.020185666 19.0
58.025109522 10.0
58.030033378 22.0
58.034957234 9.0
58.039881090 12.0
58.044804946 11.0
58.049728802 18.0
58.054652658 9.0
58.059576514 10.0
58.064500370 16.0
58.069424226 12.0
58.074348082 18.0
58.079271938 14.0
58.084195794 16.0
58.089119650 12.0
58.094043506 10.0
58.098967362 12.0
58.103891218 19.0
58.108815074 11.0
58.113738930 12.0
58.118662786 11.0
58.123586642 18.0
58.128510498 11.0
58.133434354 7.0
58.138358210 9.0
58.143282066 18.0
58.148205922 9.0
58.153129779 14.0
58.158053635 16.0
58.162977491 18.0
58.167901347 8.0
58.172825203 12.0
58.177749059 13.0
58.182672915 11.0
58.187596771 17.0
58.192520627 12.0
58.197444483 16.0
58.202368339 19.0
58.207292195 11.0
58.212216051 10.0
58.217139907 10.0
58.222063763 14.0
58.226987619 8.0
58.231911475 7.0
58.236835331 12.0
58.241759187 6.0
58.246683043 17.0
58.251606899 17.0
58.256530755 11.0
58.261454611 13.0
58.266378467 20.0
58.271302323 15.0
58.276226179 12.0
58.281150035 16.0
58.286073891 14.0
58.290997747 9.0
58.295921603 21.0
58.300845459 20.0
58.305769315 14.0
58.310693171 14.0
58.315617027 8.0
58.320540883 15.0
58.325464739 20.0
58.330388595 12.0
58.335312451 13.0
58.340236307 12.0
58.345160163 17.0
58.350084019 12.0
58.355007875 8.0
58.359931731 9.0
58.364855587 10.0
58.369779443 12.0
58.374703299 15.0
58.379627155 8.0
58.384551011 19.0
58.389474867 12.0
58.394398723 12.0
58.399322579 19.0
58.404246435 12.0
58.409170291 11.0
58.414094147 15.0
58.419018003 13.0
58.423941859 17.0
58.428865715 13.0
58.433789571 7.0
58.438713427 15.0
58.443637283 15.0
58.448561139 16.0
58.453484995 10.0
58.458408851 22.0
58.463332707 12.0
58.468256563 13.0
58.473180419 15.0
58.478104275 4.0
58.483028131 8.0
58.487951987 8.0
58.492875843 19.0
58.497799699 14.0
58.502723555 13.0
58.507647411 13.0
58.512571267 9.0
58.517495123 12.0
58.522418980 11.0
58.527342836 12.0
58.532266692 13.0
58.537190548 18.0
58.542114404 5.0
58.547038260 13.0
58.551962116 9.0
58.556885972 14.0
58.561809828 16.0
58.566733684 9.0
58.571657540 9.0
58.576581396 12.0
58.581505252 10.0
58.586429108 10.0
58.591352964 12.0
58.596276820 14.0
58.601200676 17.0
58.606124532 16.0
58.611048388 16.0
58.615972244 11.0
58.620896100 8.0
58.625819956 14.0
58.630743812 14.0
58.635667668 14.0
58.640591524 9.0
58.645515380 11.0
58.650439236 10.0
58.655363092 10.0
58.660286948 10.0
58.665210804 17.0
58.670134660 10.0
58.675058516 15.0
58.679982372 10.0
58.684906228 22.0
58.689830084 9.0
58.694753940 17.0
58.699677796 9.0
58.704601652 9.0
58.709525508 15.0
58.714449364 10.0
58.719373220 16.0
58.724297076 12.0
58.729220932 11.0
58.734144788 8.0
58.739068644 15.0
58.743992500 20.0
58.748916356 7.0
58.753840212 12.0
58.758764068 10.0
58.763687924 12.0
58.768611780 18.0
58.773535636 19.0
58.778459492 15.0
58.783383348 13.0
58.788307204 13.0
58.793231060 11.0
58.798154916 16.0
58.803078772 16.0
58.808002628 11.0
58.812926484 8.0
58.817850340 10.0
58.822774196 20.0
58.827698052 9.0
58.832621908 8.0
58.837545764 9.0
58.842469620 13.0
58.847393476 12.0
58.852317332 14.0
58.857241188 13.0
58.862165044 12.0
58.867088900 13.0
58.872012756 5.0
58.876936612 15.0
58.881860468 10.0
58.886784324 12.0
58.891708181 15.0
58.896632037 5.0
58.901555893 16.0
58.906479749 12.0
58.911403605 13.0
58.916327461 18.0
58.921251317 12.0
58.926175173 9.0
58.931099029 7.0
58.936022885 8.0
58.940946741 13.0
58.945870597 13.0
58.950794453 9.0
58.955718309 8.0
58.960642165 7.0
58.965566021 16.0
58.970489877 9.0
58.975413733 7.0
58.980337589 6.0
58.985261445 8.0
58.990185301 7.0
58.995109157 16.0
59.000033013 10.0
59.004956869 15.0
59.009880725 17.0
59.014804581 10.0
59.019728437 9.0
59.024652293 13.0
59.029576149 9.0
59.034500005 10.0
59.039423861 14.0
59.044347717 12.0
59.049271573 13.0
59.054195429 16.0
59.059119285 10.0
59.064043141 7.0
59.068966997 18.0
59.073890853 8.0
59.078814709 16.0
59.083738565 15.0
59.088662421 18.0
59.093586277 7.0
59.098510133 13.0
59.103433989 10.0
59.108357845 7.0
59.113281701 18.0
59.118205557 12.0
59.123129413 13.0
59.128053269 13.0
59.132977125 13.0
59.137900981 10.0
59.142824837 10.0
59.147748693 16.0
59.152672549 12.0
59.157596405 7.0
59.162520261 6.0
59.167444117 12.0
59.172367973 10.0
59.177291829 10.0
59.182215685 6.0
59.187139541 16.0
59.192063397 10.0
59.196987253 8.0
59.201911109 14.0
59.206834965 20.0
59.211758821 9.0
59.216682677 11.0
59.221606533 11.0
59.226530389 12.0
59.231454245 18.0
59.236378101 20.0
59.241301957 16.0
59.246225813 14.0
59.251149669 12.0
59.256073525 11.0
59.260997382 9.0
59.265921238 9.0
59.270845094 21.0
59.275768950 15.0
59.280692806 18.0
59.285616662 15.0
59.290540518 12.0
59.295464374 10.0
59.300388230 12.0
59.305312086 12.0
59.310235942 13.0
59.315159798 10.0
59.320083654 10.0
59.325007510 14.0
59.329931366 12.0
59.334855222 11.0
59.339779078 13.0
59.344702934 5.0
59.349626790 12.0
59.354550646 9.0
59.359474502 10.0
59.364398358 9.0
59.369322214 11.0
59.374246070 15.0
59.379169926 19.0
59.384093782 13.0
59.389017638 10.0
59.393941494 12.0
59.398865350 17.0
59.403789206 12.0
59.408713062 15.0
59.413636918 12.0
59.418560774 17.0
59.423484630 13.0
59.428408486 14.0
59.433332342 7.0
59.438256198 11.0
59.443180054 12.0
59.448103910 11.0
59.453027766 15.0
59.457951622 7.0
59.462875478 17.0
59.467799334 20.0
59.472723190 6.0
59.477647046 12.0
59.482570902 16.0
59.487494758 8.0
59.492418614 10.0
59.497342470 13.0
59.502266326 11.0
59.507190182 10.0
59.512114038 13.0
59.517037894 17.0
59.521961750 3.0
59.526885606 13.0
59.531809462 11.0
59.536733318 17.0
59.541657174 6.0
59.546581030 8.0
59.551504886 14.0
59.556428742 13.0
59.561352598 3.0
59.566276454 10.0
59.571200310 9.0
59.576124166 8.0
59.581048022 12.0
59.585971878 12.0
59.590895734 11.0
59.595819590 14.0
59.600743446 12.0
59.605667302 6.0
59.610591158 12.0
59.615515014 16.0
59.620438870 11.0
59.625362726 13.0
59.630286582 12.0
59.635210439 13.0
59.640134295 14.0
59.645058151 14.0
59.649982007 11.0
59.654905863 11.0
59.659829719 7.0
59.664753575 15.0
59.669677431 12.0
59.674601287 14.0
59.679525143 11.0
59.684448999 6.0
59.689372855 7.0
59.694296711 10.0
59.699220567 6.0
59.704144423 12.0
59.709068279 11.0
59.713992135 8.0
59.718915991 13.0
59.723839847 17.0
59.728763703 6.0
59.733687559 17.0
59.738611415 10.0
59.743535271 14.0
59.748459127 11.0
59.753382983 14.0
59.758306839 12.0
59.763230695 11.0
59.768154551 9.0
59.773078407 6.0
59.778002263 14.0
59.782926119 12.0
59.787849975 18.0
59.792773831 14.0
59.797697687 19.0
59.802621543 11.0
59.807545399 12.0
59.812469255 9.0
59.817393111 9.0
59.822316967 20.0
59.827240823 19.0
59.832164679 14.0
59.837088535 12.0
59.842012391 11.0
59.846936247 7.0
59.851860103 13.0
59.856783959 13.0
59.861707815 10.0
59.866631671 17.0
59.871555527 16.0
59.876479383 10.0
59.881403239 16.0
59.886327095 10.0
59.891250951 14.0
59.896174807 13.0
59.901098663 12.0
59.906022519 10.0
59.910946375 12.0
59.915870231 17.0
59.920794087 16.0
59.925717943 6.0
59.930641799 22.0
59.935565655 15.0
59.940489511 13.0
59.945413367 17.0
59.950337223 13.0
59.955261079 7.0
59.960184935 13.0
59.965108791 7.0
59.970032647 13.0
59.974956503 7.0
59.979880359 16.0
59.984804215 17.0
59.989728071 12.0
59.994651927 8.0
59.999575783 11.0
60.004499640 18.0
60.009423496 15.0
60.014347352 12.0
60.019271208 16.0
60.024195064 15.0
60.029118920 19.0
60.034042776 9.0
60.038966632 13.0
60.043890488 14.0
60.048814344 11.0
60.053738200 7.0
60.058662056 20.0
60.063585912 8.0
60.068509768 14.0
60.073433624 14.0
60.078357480 18.0
60.083281336 11.0
60.088205192 16.0
60.093129048 14.0
60.098052904 14.0
60.102976760 13.0
60.107900616 10.0
60.112824472 13.0
60.117748328 12.0
60.122672184 13.0
60.127596040 10.0
60.132519896 13.0
60.137443752 20.0
60.142367608 11.0
60.147291464 17.0
60.152215320 18.0
60.157139176 12.0
60.162063032 13.0
60.166986888 13.0
60.171910744 12.0
60.176834600 15.0
60.181758456 19.0
60.186682312 10.0
60.191606168 13.0
60.196530024 13.0
60.201453880 20.0
60.206377736 11.0
60.211301592 16.0
60.216225448 15.0
60.221149304 16.0
60.226073160 21.0
60.230997016 18.0
60.235920872 21.0
60.240844728 24.0
60.245768584 25.0
60.250692440 21.0
60.255616296 15.0
60.260540152 16.0
60.265464008 25.0
60.270387864 16.0
60.275311720 18.0
60.280235576 16.0
60.285159432 12.0
60.290083288 21.0
60.295007144 21.0
60.299931000 18.0
60.304854856 20.0
60.309778712 25.0
60.314702568 14.0
60.319626424 10.0
60.324550280 6.0
60.329474136 21.0
60.334397992 11.0
60.339321848 13.0
60.344245704 6.0
60.349169560 19.0
60.354093416 16.0
60.359017272 15.0
60.363941128 24.0
60.368864984 20.0
60.373788841 17.0
60.378712697 10.0
60.383636553 19.0
60.388560409 28.0
60.393484265 19.0
60.398408121 21.0
60.403331977 16.0
60.408255833 11.0
60.413179689 21.0
60.418103545 10.0
60.423027401 24.0
60.427951257 23.0
60.432875113 22.0
60.437798969 24.0
60.442722825 22.0
60.447646681 19.0
60.452570537 16.0
60.457494393 20.0
60.462418249 13.0
60.467342105 18.0
60.472265961 13.0
60.477189817 17.0
60.482113673 24.0
60.487037529 17.0
60.491961385 14.0
60.496885241 20.0
60.501809097 21.0
60.506732953 17.0
60.511656809 22.0
60.516580665 18.0
60.521504521 15.0
60.526428377 20.0
60.531352233 16.0
60.536276089 26.0
60.541199945 19.0
60.546123801 26.0
60.551047657 24.0
60.555971513 20.0
60.560895369 18.0
60.565819225 20.0
60.570743081 17.0
60.575666937 16.0
60.580590793 16.0
60.585514649 18.0
60.590438505 17.0
60.595362361 20.0
60.600286217 19.0
60.605210073 26.0
60.610133929 34.0
60.615057785 18.0
60.619981641 28.0
60.624905497 24.0
60.629829353 28.0
60.634753209 18.0
60.639677065 25.0
60.644600921 27.0
60.649524777 16.0
60.654448633 29.0
60.659372489 33.0
60.664296345 37.0
60.669220201 45.0
60.674144057 32.0
60.679067913 37.0
60.683991769 36.0
60.688915625 40.0
60.693839481 48.0
60.698763337 54.0
60.703687193 63.0
60.708611049 60.0
60.713534905 83.0
60.718458761 106.0
60.723382617 105.0
60.728306473 142.0
60.733230329 153.0
60.738154185 200.0
60.743078042 165.0
60.748001898 299.0
60.752925754 319.0
60.757849610 429.0
60.762773466 456.0
60.767697322 503.0
60.772621178 564.0
60.777545034 625.0
60.782468890 651.0
60.787392746 640.0
60.792316602 614.0
60.797240458 621.0
60.802164314 597.0
60.807088170 543.0
60.812012026 512.0
60.816935882 432.0
60.821859738 372.0
60.826783594 359.0
60.831707450 299.0
60.836631306 226.0
60.841555162 202.0
60.846479018 204.0
60.851402874 201.0
60.856326730 213.0
60.861250586 183.0
60.866174442 215.0
60.871098298 176.0
60.876022154 213.0
60.880946010 187.0
60.885869866 146.0
60.890793722 150.0
60.895717578 122.0
60.900641434 109.0
60.905565290 101.0
60.910489146 101.0
60.915413002 99.0
60.920336858 79.0
60.925260714 74.0
60.930184570 69.0
60.935108426 70.0
60.940032282 62.0
60.944956138 45.0
60.949879994 51.0
60.954803850 55.0
60.959727706 50.0
60.964651562 52.0
60.969575418 38.0
60.974499274 48.0
60.979423130 39.0
60.984346986 32.0
60.989270842 42.0
60.994194698 30.0
60.999118554 42.0
61.004042410 37.0
61.008966266 29.0
61.013890122 39.0
61.018813978 43.0
61.023737834 27.0
61.028661690 32.0
61.033585546 34.0
61.038509402 30.0
61.043433258 37.0
61.048357114 34.0
61.053280970 33.0
61.058204826 40.0
61.063128682 32.0
61.068052538 23.0
61.072976394 24.0
61.077900250 30.0
61.082824106 34.0
61.087747962 24.0
61.092671818 27.0
61.097595674 26.0
61.102519530 27.0
61.107443386 28.0
61.112367243 37.0
61.117291099 30.0
61.122214955 30.0
61.127138811 18.0
61.132062667 25.0
61.136986523 27.0
61.141910379 25.0
61.146834235 27.0
61.151758091 17.0
61.156681947 34.0
61.161605803 21.0
61.166529659 23.0
61.171453515 19.0
61.176377371 27.0
61.181301227 22.0
61.186225083 22.0
61.191148939 17.0
61.196072795 22.0
61.200996651 28.0
61.205920507 20.0
61.210844363 23.0
61.215768219 23.0
61.220692075 37.0
61.225615931 23.0
61.230539787 19.0
61.235463643 19.0
61.240387499 27.0
61.245311355 24.0
61.250235211 21.0
61.255159067 16.0
61.260082923 24.0
61.265006779 22.0
61.269930635 28.0
61.274854491 20.0
61.279778347 25.0
61.284702203 14.0
61.289626059 12.0
61.294549915 19.0
61.299473771 17.0
61.304397627 20.0
61.309321483 23.0
61.314245339 15.0
61.319169195 30.0
61.324093051 14.0
61.329016907 18.0
61.333940763 21.0
61.338864619 22.0
61.343788475 24.0
61.348712331 30.0
61.353636187 29.0
61.358560043 24.0
61.363483899 22.0
61.368407755 26.0
61.373331611 25.0
61.378255467 14.0
61.383179323 17.0
61.388103179 27.0
61.393027035 24.0
61.397950891 30.0
61.402874747 25.0
61.407798603 15.0
61.412722459 21.0
61.417646315 17.0
61.422570171 23.0
61.427494027 17.0
61.432417883 27.0
61.437341739 22.0
61.442265595 14.0
61.447189451 14.0
61.452113307 25.0
61.457037163 28.0
61.461961019 17.0
61.466884875 26.0
61.471808731 19.0
61.476732587 21.0
61.481656443 21.0
61.486580300 19.0
61.491504156 14.0
61.496428012 16.0
61.501351868 18.0
61.506275724 20.0
61.511199580 36.0
61.516123436 24.0
61.521047292 16.0
61.525971148 15.0
61.530895004 18.0
61.535818860 16.0
61.540742716 17.0
61.545666572 14.0
61.550590428 18.0
61.555514284 21.0
61.560438140 26.0
61.565361996 15.0
61.570285852 11.0
61.575209708 14.0
61.580133564 16.0
61.585057420 18.0
61.589981276 27.0
61.594905132 22.0
61.599828988 22.0
61.604752844 20.0
61.609676700 21.0
61.614600556 14.0
61.619524412 20.0
61.624448268 30.0
61.629372124 14.0
61.634295980 23.0
61.639219836 23.0
61.644143692 14.0
61.649067548 21.0
61.653991404 20.0
61.658915260 19.0
61.663839116 26.0
61.668762972 20.0
61.673686828 15.0
61.678610684 19.0
61.683534540 23.0
61.688458396 22.0
61.693382252 20.0
61.698306108 18.0
61.703229964 25.0
61.708153820 22.0
61.713077676 21.0
61.718001532 21.0
61.722925388 19.0
61.727849244 29.0
61.732773100 25.0
61.737696956 18.0
61.742620812 19.0
61.747544668 17.0
61.752468524 25.0
61.757392380 18.0
61.762316236 14.0
61.767240092 23.0
61.772163948 15.0
61.777087804 17.0
61.782011660 20.0
61.786935516 20.0
61.791859372 17.0
61.796783228 30.0
61.801707084 21.0
61.806630940 25.0
61.811554796 21.0
61.816478652 16.0
61.821402508 23.0
61.826326364 20.0
61.831250220 24.0
61.836174076 23.0
61.841097932 26.0
61.846021788 23.0
61.850945644 21.0
61.855869501 10.0
61.860793357 22.0
61.865717213 25.0
61.870641069 32.0
61.875564925 28.0
61.880488781 21.0
61.885412637 25.0
61.890336493 24.0
61.895260349 25.0
61.900184205 18.0
61.905108061 25.0
61.910031917 27.0
61.914955773 23.0
61.919879629 30.0
61.924803485 23.0
61.929727341 23.0
61.934651197 29.0
61.939575053 21.0
61.944498909 25.0
61.949422765 44.0
61.954346621 28.0
61.959270477 22.0
61.964194333 30.0
61.969118189 24.0
61.974042045 25.0
61.978965901 22.0
61.983889757 29.0
61.988813613 31.0
61.993737469 25.0
61.998661325 26.0
62.003585181 23.0
62.008509037 19.0
62.013432893 28.0
62.018356749 21.0
62.023280605 32.0
62.028204461 22.0
62.033128317 23.0
62.038052173 27.0
62.042976029 29.0
62.047899885 21.0
62.052823741 26.0
62.057747597 19.0
62.062671453 19.0
62.067595309 19.0
62.072519165 30.0
62.077443021 21.0
62.082366877 33.0
62.087290733 27.0
62.092214589 20.0
62.097138445 20.0
62.102062301 38.0
62.106986157 26.0
62.111910013 29.0
62.116833869 18.0
62.121757725 30.0
62.126681581 25.0
62.131605437 31.0
62.136529293 30.0
62.141453149 29.0
62.146377005 18.0
62.151300861 32.0
62.156224717 27.0
62.161148573 25.0
62.166072429 24.0
62.170996285 20.0
62.175920141 26.0
62.180843997 20.0
62.185767853 40.0
62.190691709 25.0
62.195615565 26.0
62.200539421 31.0
62.205463277 33.0
62.210387133 23.0
62.215310989 29.0
62.220234845 20.0
62.225158702 20.0
62.230082558 26.0
62.235006414 26.0
62.239930270 39.0
62.244854126 34.0
62.249777982 45.0
62.254701838 36.0
62.259625694 26.0
62.264549550 31.0
62.269473406 24.0
62.274397262 38.0
62.279321118 27.0
62.284244974 26.0
62.289168830 27.0
62.294092686 34.0
62.299016542 29.0
62.303940398 31.0
62.308864254 24.0
62.313788110 31.0
62.318711966 22.0
62.323635822 37.0
62.328559678 26.0
62.333483534 23.0
62.338407390 25.0
62.343331246 27.0
62.348255102 29.0
62.353178958 23.0
62.358102814 26.0
62.363026670 27.0
62.367950526 24.0
62.372874382 21.0
62.377798238 30.0
62.382722094 29.0
62.387645950 35.0
62.392569806 25.0
62.397493662 39.0
62.402417518 28.0
62.407341374 30.0
62.412265230 33.0
62.417189086 33.0
62.422112942 39.0
62.427036798 29.0
62.431960654 30.0
62.436884510 26.0
62.441808366 29.0
62.446732222 31.0
62.451656078 25.0
62.456579934 24.0
62.461503790 36.0
62.466427646 31.0
62.471351502 24.0
62.476275358 36.0
62.481199214 30.0
62.486123070 39.0
62.491046926 31.0
62.495970782 34.0
62.500894638 29.0
62.505818494 31.0
62.510742350 25.0
62.515666206 35.0
62.520590062 38.0
62.525513918 24.0
62.530437774 32.0
62.535361630 39.0
62.540285486 48.0
62.545209342 17.0
62.550133198 42.0
62.555057054 37.0
62.559980910 36.0
62.564904766 31.0
62.569828622 31.0
62.574752478 25.0
62.579676334 38.0
62.584600190 36.0
62.589524046 37.0
62.594447903 31.0
62.599371759 41.0
62.604295615 40.0
62.609219471 29.0
62.614143327 31.0
62.619067183 37.0
62.623991039 31.0
62.628914895 34.0
62.633838751 36.0
62.638762607 29.0
62.643686463 28.0
62.648610319 46.0
62.653534175 31.0
62.658458031 37.0
62.663381887 28.0
62.668305743 34.0
62.673229599 31.0
62.678153455 38.0
62.683077311 30.0
62.688001167 32.0
62.692925023 50.0
62.697848879 37.0
62.702772735 41.0
62.707696591 37.0
62.712620447 44.0
62.717544303 42.0
62.722468159 40.0
62.727392015 33.0
62.732315871 43.0
62.737239727 45.0
62.742163583 37.0
62.747087439 25.0
62.752011295 34.0
62.756935151 43.0
62.761859007 39.0
62.766782863 54.0
62.771706719 52.0
62.776630575 47.0
62.781554431 44.0
62.786478287 37.0
62.791402143 41.0
62.796325999 39.0
62.801249855 40.0
62.806173711 46.0
62.811097567 32.0
62.816021423 34.0
62.820945279 46.0
62.825869135 53.0
62.830792991 45.0
62.835716847 50.0
62.840640703 49.0
62.845564559 37.0
62.850488415 43.0
62.855412271 40.0
62.860336127 45.0
62.865259983 58.0
62.870183839 40.0
62.875107695 39.0
62.880031551 43.0
62.884955407 53.0
62.889879263 37.0
62.894803119 35.0
62.899726975 49.0
62.904650831 46.0
62.909574687 49.0
62.914498543 38.0
62.919422399 49.0
62.924346255 45.0
62.929270111 44.0
62.934193967 42.0
62.939117823 29.0
62.944041679 51.0
62.948965535 36.0
62.953889391 45.0
62.958813247 56.0
62.963737104 54.0
62.968660960 48.0
62.973584816 55.0
62.978508672 44.0
62.983432528 53.0
62.988356384 51.0
62.993280240 45.0
62.998204096 58.0
63.003127952 50.0
63.008051808 49.0
63.012975664 57.0
63.017899520 42.0
63.022823376 57.0
63.027747232 59.0
63.032671088 59.0
63.037594944 51.0
63.042518800 50.0
63.047442656 63.0
63.052366512 46.0
63.057290368 60.0
63.062214224 59.0
63.067138080 67.0
63.072061936 50.0
63.076985792 52.0
63.081909648 51.0
63.086833504 65.0
63.091757360 57.0
63.096681216 69.0
63.101605072 64.0
63.106528928 68.0
63.111452784 63.0
63.116376640 57.0
63.121300496 64.0
63.126224352 61.0
63.131148208 81.0
63.136072064 63.0
63.140995920 71.0
63.145919776 61.0
63.150843632 76.0
63.155767488 78.0
63.160691344 78.0
63.165615200 73.0
63.170539056 66.0
63.175462912 69.0
63.180386768 69.0
63.185310624 70.0
63.190234480 65.0
63.195158336 58.0
63.200082192 81.0
63.205006048 76.0
63.209929904 75.0
63.214853760 74.0
63.219777616 68.0
63.224701472 64.0
63.229625328 83.0
63.234549184 78.0
63.239473040 71.0
63.244396896 70.0
63.249320752 88.0
63.254244608 80.0
63.259168464 70.0
63.264092320 89.0
63.269016176 85.0
63.273940032 67.0
63.278863888 87.0
63.283787744 86.0
63.288711600 83.0
63.293635456 96.0
63.298559312 89.0
63.303483168 84.0
63.308407024 105.0
63.313330880 87.0
63.318254736 90.0
63.323178592 88.0
63.328102448 94.0
63.333026304 88.0
63.337950161 93.0
63.342874017 99.0
63.347797873 97.0
63.352721729 105.0
63.357645585 87.0
63.362569441 91.0
63.367493297 102.0
63.372417153 104.0
63.377341009 92.0
63.382264865 111.0
63.387188721 112.0
63.392112577 110.0
63.397036433 116.0
63.401960289 112.0
63.406884145 95.0
63.411808001 100.0
63.416731857 114.0
63.421655713 105.0
63.426579569 128.0
63.431503425 111.0
63.436427281 119.0
63.441351137 106.0
63.446274993 114.0
63.451198849 118.0
63.456122705 109.0
63.461046561 103.0
63.465970417 140.0
63.470894273 146.0
63.475818129 134.0
63.480741985 136.0
63.485665841 118.0
63.490589697 122.0
63.495513553 130.0
63.500437409 143.0
63.505361265 156.0
63.510285121 147.0
63.515208977 156.0
63.520132833 144.0
63.525056689 152.0
63.529980545 164.0
63.534904401 171.0
63.539828257 170.0
63.544752113 147.0
63.549675969 142.0
63.554599825 152.0
63.559523681 152.0
63.564447537 189.0
63.569371393 163.0
63.574295249 178.0
63.579219105 173.0
63.584142961 176.0
63.589066817 189.0
63.593990673 197.0
63.598914529 183.0
63.603838385 193.0
63.608762241 199.0
63.613686097 198.0
63.618609953 193.0
63.623533809 192.0
63.628457665 187.0
63.633381521 236.0
63.638305377 201.0
63.643229233 222.0
63.648153089 238.0
63.653076945 204.0
63.658000801 231.0
63.662924657 232.0
63.667848513 240.0
63.672772369 212.0
63.677696225 222.0
63.682620081 245.0
63.687543937 218.0
63.692467793 242.0
63.697391649 293.0
63.702315505 293.0
63.707239362 257.0
63.712163218 278.0
63.717087074 293.0
63.722010930 293.0
63.726934786 300.0
63.731858642 316.0
63.736782498 277.0
63.741706354 329.0
63.746630210 356.0
63.751554066 366.0
63.756477922 308.0
63.761401778 341.0
63.766325634 351.0
63.771249490 364.0
63.776173346 382.0
63.781097202 356.0
63.786021058 360.0
63.790944914 404.0
63.795868770 386.0
63.800792626 391.0
63.805716482 443.0
63.810640338 426.0
63.815564194 451.0
63.820488050 431.0
63.825411906 442.0
63.830335762 450.0
63.835259618 478.0
63.840183474 459.0
63.845107330 489.0
63.850031186 527.0
63.854955042 531.0
63.859878898 550.0
63.864802754 518.0
63.869726610 555.0
63.874650466 566.0
63.879574322 599.0
63.884498178 562.0
63.889422034 594.0
63.894345890 603.0
63.899269746 638.0
63.904193602 647.0
63.909117458 723.0
63.914041314 693.0
63.918965170 739.0
63.923889026 715.0
63.928812882 733.0
63.933736738 759.0
63.938660594 814.0
63.943584450 727.0
63.948508306 800.0
63.953432162 853.0
63.958356018 850.0
63.963279874 824.0
63.968203730 908.0
63.973127586 920.0
63.978051442 931.0
63.982975298 959.0
63.987899154 929.0
63.992823010 973.0
63.997746866 1000.0
64.002670722 1042.0
64.007594578 1053.0
64.012518434 1063.0
64.017442290 1113.0
64.022366146 1189.0
64.027290002 1228.0
64.032213858 1194.0
64.037137714 1295.0
64.042061570 1321.0
64.046985426 1263.0
64.051909282 1295.0
64.056833138 1372.0
64.061756994 1413.0
64.066680850 1389.0
64.071604706 1463.0
64.076528563 1584.0
64.081452419 1580.0
64.086376275 1618.0
64.091300131 1588.0
64.096223987 1640.0
64.101147843 1727.0
64.106071699 1660.0
64.110995555 1814.0
64.115919411 1775.0
64.120843267 1829.0
64.125767123 1889.0
64.130690979 1902.0
64.135614835 1955.0
64.140538691 2031.0
64.145462547 2136.0
64.150386403 2105.0
64.155310259 2161.0
64.160234115 2113.0
64.165157971 2238.0
64.170081827 2257.0
64.175005683 2297.0
64.179929539 2440.0
64.184853395 2505.0
64.189777251 2495.0
64.194701107 2541.0
64.199624963 2659.0
64.204548819 2659.0
64.209472675 2713.0
64.214396531 2791.0
64.219320387 2860.0
64.224244243 2901.0
64.229168099 2889.0
64.234091955 2917.0
64.239015811 3073.0
64.243939667 3129.0
64.248863523 2984.0
64.253787379 3067.0
64.258711235 3167.0
64.263635091 3332.0
64.268558947 3313.0
64.273482803 3278.0
64.278406659 3298.0
64.283330515 3377.0
64.288254371 3354.0
64.293178227 3462.0
64.298102083 3546.0
64.303025939 3608.0
64.307949795 3566.0
64.312873651 3602.0
64.317797507 3624.0
64.322721363 3624.0
64.327645219 3557.0
64.332569075 3569.0
64.337492931 3753.0
64.342416787 3520.0
64.347340643 3572.0
64.352264499 3634.0
64.357188355 3591.0
64.362112211 3638.0
64.367036067 3494.0
64.371959923 3635.0
64.376883779 3530.0
64.381807635 3468.0
64.386731491 3507.0
64.391655347 3539.0
64.396579203 3446.0
64.401503059 3320.0
64.406426915 3379.0
64.411350771 3258.0
64.416274627 3285.0
64.421198483 3186.0
64.426122339 3210.0
64.431046195 3129.0
64.435970051 3274.0
64.440893907 3074.0
64.445817764 3017.0
64.450741620 3059.0
64.455665476 2978.0
64.460589332 2958.0
64.465513188 2876.0
64.470437044 2863.0
64.475360900 2764.0
64.480284756 2792.0
64.485208612 2799.0
64.490132468 2773.0
64.495056324 2664.0
64.499980180 2611.0
64.504904036 2500.0
64.509827892 2619.0
64.514751748 2603.0
64.519675604 2499.0
64.524599460 2545.0
64.529523316 2385.0
64.534447172 2430.0
64.539371028 2194.0
64.544294884 2249.0
64.549218740 2318.0
64.554142596 2266.0
64.559066452 2213.0
64.563990308 2079.0
64.568914164 2027.0
64.573838020 2096.0
64.578761876 1991.0
64.583685732 1929.0
64.588609588 1914.0
64.593533444 1807.0
64.598457300 1719.0
64.603381156 1810.0
64.608305012 1605.0
64.613228868 1662.0
64.618152724 1601.0
64.623076580 1582.0
64.628000436 1539.0
64.632924292 1496.0
64.637848148 1441.0
64.642772004 1409.0
64.647695860 1369.0
64.652619716 1297.0
64.657543572 1358.0
64.662467428 1283.0
64.667391284 1293.0
64.672315140 1222.0
64.677238996 1166.0
64.682162852 1177.0
64.687086708 1193.0
64.692010564 1103.0
64.696934420 1036.0
64.701858276 1145.0
64.706782132 1037.0
64.711705988 1010.0
64.716629844 887.0
64.721553700 944.0
64.726477556 999.0
64.731401412 920.0
64.736325268 921.0
64.741249124 852.0
64.746172980 872.0
64.751096836 860.0
64.756020692 802.0
64.760944548 827.0
64.765868404 790.0
64.770792260 752.0
64.775716116 738.0
64.780639972 713.0
64.785563828 742.0
64.790487684 709.0
64.795411540 707.0
64.800335396 653.0
64.805259252 641.0
64.810183108 601.0
64.815106965 638.0
64.820030821 605.0
64.824954677 594.0
64.829878533 593.0
64.834802389 566.0
64.839726245 581.0
64.844650101 556.0
64.849573957 576.0
64.854497813 532.0
64.859421669 511.0
64.864345525 560.0
64.869269381 538.0
64.874193237 515.0
64.879117093 495.0
64.884040949 493.0
64.888964805 485.0
64.893888661 520.0
64.898812517 508.0
64.903736373 454.0
64.908660229 455.0
64.913584085 439.0
64.918507941 432.0
64.923431797 436.0
64.928355653 426.0
64.933279509 422.0
64.938203365 407.0
64.943127221 409.0
64.948051077 369.0
64.952974933 384.0
64.957898789 377.0
64.962822645 390.0
64.967746501 346.0
64.972670357 340.0
64.977594213 376.0
64.982518069 351.0
64.987441925 346.0
64.992365781 342.0
64.997289637 308.0
65.002213493 332.0
65.007137349 283.0
65.012061205 295.0
65.016985061 298.0
65.021908917 290.0
65.026832773 297.0
65.031756629 333.0
65.036680485 313.0
65.041604341 306.0
65.046528197 261.0
65.051452053 279.0
65.056375909 299.0
65.061299765 284.0
65.066223621 255.0
65.071147477 257.0
65.076071333 244.0
65.080995189 248.0
65.085919045 229.0
65.090842901 278.0
65.095766757 235.0
65.100690613 238.0
65.105614469 215.0
65.110538325 226.0
65.115462181 216.0
65.120386037 200.0
65.125309893 210.0
65.130233749 218.0
65.135157605 218.0
65.140081461 224.0
65.145005317 214.0
65.149929173 211.0
65.154853029 209.0
65.159776885 226.0
65.164700741 194.0
65.169624597 175.0
65.174548453 186.0
65.179472309 185.0
65.184396165 149.0
65.189320022 180.0
65.194243878 143.0
65.199167734 166.0
65.204091590 147.0
65.209015446 180.0
65.213939302 178.0
65.218863158 146.0
65.223787014 146.0
65.228710870 165.0
65.233634726 164.0
65.238558582 157.0
65.243482438 155.0
65.248406294 170.0
65.253330150 145.0
65.258254006 148.0
65.263177862 151.0
65.268101718 154.0
65.273025574 174.0
65.277949430 151.0
65.282873286 131.0
65.287797142 143.0
65.292720998 143.0
65.297644854 142.0
65.302568710 120.0
65.307492566 115.0
65.312416422 125.0
65.317340278 131.0
65.322264134 153.0
65.327187990 110.0
65.332111846 122.0
65.337035702 130.0
65.341959558 118.0
65.346883414 119.0
65.351807270 137.0
65.356731126 126.0
65.361654982 114.0
65.366578838 122.0
65.371502694 136.0
65.376426550 140.0
65.381350406 113.0
65.386274262 133.0
65.391198118 145.0
65.396121974 120.0
65.401045830 110.0
65.405969686 109.0
65.410893542 109.0
65.415817398 120.0
65.420741254 114.0
65.425665110 98.0
65.430588966 113.0
65.435512822 120.0
65.440436678 107.0
65.445360534 100.0
65.450284390 110.0
65.455208246 113.0
65.460132102 113.0
65.465055958 102.0
65.469979814 104.0
65.474903670 102.0
65.479827526 103.0
65.484751382 104.0
65.489675238 98.0
65.494599094 73.0
65.499522950 77.0
65.504446806 111.0
65.509370662 94.0
65.514294518 94.0
65.519218374 104.0
65.524142230 96.0
65.529066086 100.0
65.533989942 94.0
65.538913798 88.0
65.543837654 98.0
65.548761510 93.0
65.553685366 100.0
65.558609223 89.0
65.563533079 98.0
65.568456935 100.0
65.573380791 90.0
65.578304647 72.0
65.583228503 89.0
65.588152359 99.0
65.593076215 82.0
65.598000071 94.0
65.602923927 87.0
65.607847783 87.0
65.612771639 94.0
65.617695495 70.0
65.622619351 83.0
65.627543207 86.0
65.632467063 78.0
65.637390919 81.0
65.642314775 78.0
65.647238631 96.0
65.652162487 80.0
65.657086343 91.0
65.662010199 93.0
65.666934055 75.0
65.671857911 76.0
65.676781767 76.0
65.681705623 88.0
65.686629479 67.0
65.691553335 66.0
65.696477191 83.0
65.701401047 70.0
65.706324903 76.0
65.711248759 64.0
65.716172615 83.0
65.721096471 78.0
65.726020327 75.0
65.730944183 72.0
65.735868039 86.0
65.740791895 54.0
65.745715751 73.0
65.750639607 82.0
65.755563463 64.0
65.760487319 58.0
65.765411175 80.0
65.770335031 76.0
65.775258887 60.0
65.780182743 74.0
65.785106599 66.0
65.790030455 71.0
65.794954311 83.0
65.799878167 73.0
65.804802023 69.0
65.809725879 64.0
65.814649735 76.0
65.819573591 74.0
65.824497447 66.0
65.829421303 71.0
65.834345159 62.0
65.839269015 73.0
65.844192871 83.0
65.849116727 59.0
65.854040583 66.0
65.858964439 67.0
65.863888295 68.0
65.868812151 67.0
65.873736007 74.0
65.878659863 75.0
65.883583719 80.0
65.888507575 59.0
65.893431431 77.0
65.898355287 68.0
65.903279143 75.0
65.908202999 62.0
65.913126855 64.0
65.918050711 60.0
65.922974567 87.0
65.927898424 58.0
65.932822280 82.0
65.937746136 77.0
65.942669992 68.0
65.947593848 67.0
65.952517704 69.0
65.957441560 61.0
65.962365416 73.0
65.967289272 77.0
65.972213128 79.0
65.977136984 59.0
65.982060840 61.0
65.986984696 62.0
65.991908552 76.0
65.996832408 65.0
66.001756264 75.0
66.006680120 69.0
66.011603976 76.0
66.016527832 52.0
66.021451688 80.0
66.026375544 61.0
66.031299400 75.0
66.036223256 62.0
66.041147112 63.0
66.046070968 51.0
66.050994824 79.0
66.055918680 65.0
66.060842536 75.0
66.065766392 65.0
66.070690248 76.0
66.075614104 78.0
66.080537960 59.0
66.085461816 66.0
66.090385672 73.0
66.095309528 63.0
66.100233384 57.0
66.105157240 91.0
66.110081096 73.0
66.115004952 62.0
66.119928808 64.0
66.124852664 74.0
66.129776520 72.0
66.134700376 67.0
66.139624232 66.0
66.144548088 67.0
66.149471944 82.0
66.154395800 83.0
66.159319656 78.0
66.164243512 75.0
66.169167368 64.0
66.174091224 75.0
66.179015080 64.0
66.183938936 64.0
66.188862792 72.0
66.193786648 78.0
66.198710504 59.0
66.203634360 68.0
66.208558216 70.0
66.213482072 77.0
66.218405928 70.0
66.223329784 87.0
66.228253640 74.0
66.233177496 72.0
66.238101352 61.0
66.243025208 70.0
66.247949064 67.0
66.252872920 63.0
66.257796776 76.0
66.262720632 74.0
66.267644488 65.0
66.272568344 80.0
66.277492200 84.0
66.282416056 78.0
66.287339912 80.0
66.292263768 63.0
66.297187625 89.0
66.302111481 82.0
66.307035337 69.0
66.311959193 66.0
66.316883049 78.0
66.321806905 67.0
66.326730761 71.0
66.331654617 87.0
66.336578473 78.0
66.341502329 91.0
66.346426185 70.0
66.351350041 83.0
66.356273897 73.0
66.361197753 81.0
66.366121609 80.0
66.371045465 77.0
66.375969321 87.0
66.380893177 81.0
66.385817033 86.0
66.390740889 80.0
66.395664745 84.0
66.400588601 88.0
66.405512457 79.0
66.410436313 80.0
66.415360169 83.0
66.420284025 82.0
66.425207881 81.0
66.430131737 72.0
66.435055593 80.0
66.439979449 75.0
66.444903305 68.0
66.449827161 80.0
66.454751017 82.0
66.459674873 81.0
66.464598729 89.0
66.469522585 87.0
66.474446441 84.0
66.479370297 76.0
66.484294153 84.0
66.489218009 96.0
66.494141865 92.0
66.499065721 88.0
66.503989577 80.0
66.508913433 77.0
66.513837289 82.0
66.518761145 95.0
66.523685001 92.0
66.528608857 87.0
66.533532713 77.0
66.538456569 86.0
66.543380425 81.0
66.548304281 102.0
66.553228137 79.0
66.558151993 97.0
66.563075849 87.0
66.567999705 87.0
66.572923561 82.0
66.577847417 79.0
66.582771273 82.0
66.587695129 93.0
66.592618985 79.0
66.597542841 89.0
66.602466697 97.0
66.607390553 76.0
66.612314409 98.0
66.617238265 100.0
66.622162121 88.0
66.627085977 93.0
66.632009833 86.0
66.636933689 86.0
66.641857545 96.0
66.646781401 108.0
66.651705257 91.0
66.656629113 106.0
66.661552969 89.0
66.666476826 106.0
66.671400682 89.0
66.676324538 83.0
66.681248394 101.0
66.686172250 96.0
66.691096106 104.0
66.696019962 104.0
66.700943818 93.0
66.705867674 104.0
66.710791530 100.0
66.715715386 121.0
66.720639242 74.0
66.725563098 106.0
66.730486954 110.0
66.735410810 109.0
66.740334666 108.0
66.745258522 110.0
66.750182378 121.0
66.755106234 97.0
66.760030090 111.0
66.764953946 89.0
66.769877802 107.0
66.774801658 123.0
66.779725514 97.0
66.784649370 114.0
66.789573226 109.0
66.794497082 91.0
66.799420938 121.0
66.804344794 100.0
66.809268650 125.0
66.814192506 114.0
66.819116362 104.0
66.824040218 113.0
66.828964074 106.0
66.833887930 100.0
66.838811786 141.0
66.843735642 116.0
66.848659498 121.0
66.853583354 106.0
66.858507210 107.0
66.863431066 110.0
66.868354922 124.0
66.873278778 118.0
66.878202634 120.0
66.883126490 111.0
66.888050346 110.0
66.892974202 127.0
66.897898058 126.0
66.902821914 118.0
66.907745770 126.0
66.912669626 106.0
66.917593482 120.0
66.922517338 127.0
66.927441194 136.0
66.932365050 126.0
66.937288906 145.0
66.942212762 106.0
66.947136618 129.0
66.952060474 131.0
66.956984330 148.0
66.961908186 125.0
66.966832042 136.0
66.971755898 134.0
66.976679754 120.0
66.981603610 162.0
66.986527466 122.0
66.991451322 113.0
66.996375178 141.0
67.001299034 124.0
67.006222890 146.0
67.011146746 124.0
67.016070602 116.0
67.020994458 128.0
67.025918314 130.0
67.030842170 148.0
67.035766026 117.0
67.040689883 147.0
67.045613739 138.0
67.050537595 115.0
67.055461451 124.0
67.060385307 134.0
67.065309163 142.0
67.070233019 143.0
67.075156875 126.0
67.080080731 141.0
67.085004587 147.0
67.089928443 151.0
67.094852299 139.0
67.099776155 152.0
67.104700011 148.0
67.109623867 145.0
67.114547723 156.0
67.119471579 154.0
67.124395435 143.0
67.129319291 145.0
67.134243147 160.0
67.139167003 147.0
67.144090859 175.0
67.149014715 188.0
67.153938571 168.0
67.158862427 144.0
67.163786283 174.0
67.168710139 141.0
67.173633995 174.0
67.178557851 150.0
67.183481707 162.0
67.188405563 162.0
67.193329419 174.0
67.198253275 162.0
67.203177131 185.0
67.208100987 182.0
67.213024843 179.0
67.217948699 166.0
67.222872555 162.0
67.227796411 179.0
67.232720267 185.0
67.237644123 162.0
67.242567979 186.0
67.247491835 192.0
67.252415691 204.0
67.257339547 182.0
67.262263403 177.0
67.267187259 180.0
67.272111115 170.0
67.277034971 190.0
67.281958827 186.0
67.286882683 215.0
67.291806539 200.0
67.296730395 213.0
67.301654251 202.0
67.306578107 211.0
67.311501963 223.0
67.316425819 192.0
67.321349675 203.0
67.326273531 191.0
67.331197387 220.0
67.336121243 202.0
67.341045099 199.0
67.345968955 195.0
67.350892811 209.0
67.355816667 226.0
67.360740523 265.0
67.365664379 205.0
67.370588235 273.0
67.375512091 212.0
67.380435947 265.0
67.385359803 226.0
67.390283659 202.0
67.395207515 277.0
67.400131371 220.0
67.405055227 263.0
67.409979084 299.0
67.414902940 279.0
67.419826796 276.0
67.424750652 264.0
67.429674508 261.0
67.434598364 324.0
67.439522220 288.0
67.444446076 299.0
67.449369932 260.0
67.454293788 289.0
67.459217644 297.0
67.464141500 291.0
67.469065356 299.0
67.473989212 288.0
67.478913068 291.0
67.483836924 330.0
67.488760780 305.0
67.493684636 323.0
67.498608492 352.0
67.503532348 304.0
67.508456204 328.0
67.513380060 301.0
67.518303916 339.0
67.523227772 327.0
67.528151628 337.0
67.533075484 347.0
67.537999340 331.0
67.542923196 357.0
67.547847052 366.0
67.552770908 363.0
67.557694764 365.0
67.562618620 334.0
67.567542476 387.0
67.572466332 388.0
67.577390188 408.0
67.582314044 372.0
67.587237900 375.0
67.592161756 425.0
67.597085612 397.0
67.602009468 412.0
67.606933324 380.0
67.611857180 430.0
67.616781036 428.0
67.621704892 473.0
67.626628748 452.0
67.631552604 454.0
67.636476460 446.0
67.641400316 512.0
67.646324172 502.0
67.651248028 515.0
67.656171884 531.0
67.661095740 525.0
67.666019596 572.0
67.670943452 594.0
67.675867308 630.0
67.680791164 616.0
67.685715020 664.0
67.690638876 695.0
67.695562732 704.0
67.700486588 712.0
67.705410444 776.0
67.710334300 826.0
67.715258156 893.0
67.720182012 889.0
67.725105868 1012.0
67.730029724 1089.0
67.734953580 1127.0
67.739877436 1125.0
67.744801292 1194.0
67.749725148 1176.0
67.754649004 1266.0
67.759572860 1277.0
67.764496716 1345.0
67.769420572 1368.0
67.774344428 1369.0
67.779268285 1410.0
67.784192141 1461.0
67.789115997 1364.0
67.794039853 1420.0
67.798963709 1464.0
67.803887565 1466.0
67.808811421 1369.0
67.813735277 1447.0
67.818659133 1428.0
67.823582989 1453.0
67.828506845 1396.0
67.833430701 1351.0
67.838354557 1383.0
67.843278413 1329.0
67.848202269 1385.0
67.853126125 1378.0
67.858049981 1410.0
67.862973837 1454.0
67.867897693 1380.0
67.872821549 1349.0
67.877745405 1399.0
67.882669261 1426.0
67.887593117 1509.0
67.892516973 1522.0
67.897440829 1570.0
67.902364685 1522.0
67.907288541 1540.0
67.912212397 1622.0
67.917136253 1758.0
67.922060109 1820.0
67.926983965 1837.0
67.931907821 1908.0
67.936831677 2009.0
67.941755533 2055.0
67.946679389 2305.0
67.951603245 2356.0
67.956527101 2442.0
67.961450957 2551.0
67.966374813 2716.0
67.971298669 2938.0
67.976222525 3061.0
67.981146381 3230.0
67.986070237 3607.0
67.990994093 3893.0
67.995917949 4193.0
68.000841805 4597.0
68.005765661 4895.0
68.010689517 5493.0
68.015613373 5989.0
68.020537229 6660.0
68.025461085 7382.0
68.030384941 8565.0
68.035308797 9626.0
68.040232653 11186.0
68.045156509 13008.0
68.050080365 15806.0
68.055004221 18864.0
68.059928077 23781.0
68.064851933 30870.0
68.069775789 41127.0
68.074699645 56674.0
68.079623501 76856.0
68.084547357 98255.0
68.089471213 117595.0
68.094395069 131548.0
68.099318925 141696.0
68.104242781 147745.0
68.109166637 150428.0
68.114090493 150609.0
68.119014349 146258.0
68.123938205 136596.0
68.128862061 119490.0
68.133785917 99559.0
68.138709773 77778.0
68.143633629 60462.0
68.148557486 47250.0
68.153481342 37020.0
68.158405198 29949.0
68.163329054 24136.0
68.168252910 19724.0
68.173176766 16281.0
68.178100622 14086.0
68.183024478 12153.0
68.187948334 10698.0
68.192872190 9841.0
68.197796046 8945.0
68.202719902 8435.0
68.207643758 8008.0
68.212567614 7779.0
68.217491470 7867.0
68.222415326 8146.0
68.227339182 8433.0
68.232263038 8961.0
68.237186894 9774.0
68.242110750 10974.0
68.247034606 12832.0
68.251958462 15224.0
68.256882318 18691.0
68.261806174 23872.0
68.266730030 30429.0
68.271653886 38665.0
68.276577742 47915.0
68.281501598 56616.0
68.286425454 63887.0
68.291349310 69742.0
68.296273166 72821.0
68.301197022 75420.0
68.306120878 75354.0
68.311044734 73341.0
68.315968590 68934.0
68.320892446 62158.0
68.325816302 52925.0
68.330740158 44054.0
68.335664014 34885.0
68.340587870 28293.0
68.345511726 22043.0
68.350435582 17972.0
68.355359438 14362.0
68.360283294 11796.0
68.365207150 9825.0
68.370131006 8064.0
68.375054862 6988.0
68.379978718 6117.0
68.384902574 5418.0
68.389826430 4773.0
68.394750286 4362.0
68.399674142 3919.0
68.404597998 3541.0
68.409521854 3238.0
68.414445710 2983.0
68.419369566 2842.0
68.424293422 2617.0
68.429217278 2526.0
68.434141134 2374.0
68.439064990 2287.0
68.443988846 2139.0
68.448912702 1988.0
68.453836558 1906.0
68.458760414 1843.0
68.463684270 1823.0
68.468608126 1684.0
68.473531982 1630.0
68.478455838 1592.0
68.483379694 1562.0
68.488303550 1496.0
68.493227406 1410.0
68.498151262 1396.0
68.503075118 1339.0
68.507998974 1343.0
68.512922830 1265.0
68.517846687 1183.0
68.522770543 1144.0
68.527694399 1137.0
68.532618255 1153.0
68.537542111 1131.0
68.542465967 1045.0
68.547389823 1108.0
68.552313679 961.0
68.557237535 1005.0
68.562161391 980.0
68.567085247 945.0
68.572009103 903.0
68.576932959 874.0
68.581856815 851.0
68.586780671 871.0
68.591704527 866.0
68.596628383 843.0
68.601552239 837.0
68.606476095 812.0
68.611399951 743.0
68.616323807 782.0
68.621247663 771.0
68.626171519 716.0
68.631095375 732.0
68.636019231 737.0
68.640943087 693.0
68.645866943 709.0
68.650790799 681.0
68.655714655 627.0
68.660638511 670.0
68.665562367 633.0
68.670486223 609.0
68.675410079 598.0
68.680333935 619.0
68.685257791 586.0
68.690181647 619.0
68.695105503 586.0
68.700029359 579.0
68.704953215 558.0
68.709877071 584.0
68.714800927 551.0
68.719724783 581.0
68.724648639 526.0
68.729572495 555.0
68.734496351 539.0
68.739420207 527.0
68.744344063 504.0
68.749267919 473.0
68.754191775 445.0
68.759115631 450.0
68.764039487 487.0
68.768963343 430.0
68.773887199 468.0
68.778811055 448.0
68.783734911 423.0
68.788658767 444.0
68.793582623 430.0
68.798506479 422.0
68.803430335 415.0
68.808354191 405.0
68.813278047 448.0
68.818201903 402.0
68.823125759 393.0
68.828049615 400.0
68.832973471 394.0
68.837897327 387.0
68.842821183 350.0
68.847745039 332.0
68.852668895 359.0
68.857592751 393.0
68.862516607 362.0
68.867440463 389.0
68.872364319 372.0
68.877288175 377.0
68.882212031 310.0
68.887135887 354.0
68.892059744 348.0
68.896983600 346.0
68.901907456 349.0
68.906831312 305.0
68.911755168 318.0
68.916679024 347.0
68.921602880 328.0
68.926526736 327.0
68.931450592 318.0
68.936374448 321.0
68.941298304 330.0
68.946222160 303.0
68.951146016 303.0
68.956069872 326.0
68.960993728 312.0
68.965917584 306.0
68.970841440 343.0
68.975765296 280.0
68.980689152 323.0
68.985613008 297.0
68.990536864 330.0
68.995460720 288.0
69.000384576 303.0
69.005308432 348.0
69.010232288 217.0
69.015156144 312.0
69.020080000 289.0
69.025003856 268.0
69.029927712 266.0
69.034851568 266.0
69.039775424 265.0
69.044699280 264.0
69.049623136 281.0
69.054546992 297.0
69.059470848 270.0
69.064394704 268.0
69.069318560 259.0
69.074242416 269.0
69.079166272 261.0
69.084090128 220.0
69.089013984 278.0
69.093937840 202.0
69.098861696 288.0
69.103785552 264.0
69.108709408 210.0
69.113633264 256.0
69.118557120 219.0
69.123480976 206.0
69.128404832 271.0
69.133328688 190.0
69.138252544 211.0
69.143176400 214.0
69.148100256 208.0
69.153024112 192.0
69.157947968 274.0
69.162871824 189.0
69.167795680 201.0
69.172719536 180.0
69.177643392 206.0
69.182567248 179.0
69.187491104 188.0
69.192414960 208.0
69.197338816 197.0
69.202262672 191.0
69.207186528 183.0
69.212110384 201.0
69.217034240 196.0
69.221958096 192.0
69.226881952 174.0
69.231805808 159.0
69.236729664 180.0
69.241653520 185.0
69.246577376 169.0
69.251501232 176.0
69.256425088 193.0
69.261348945 184.0
69.266272801 174.0
69.271196657 180.0
69.276120513 153.0
69.281044369 202.0
69.285968225 169.0
69.290892081 206.0
69.295815937 154.0
69.300739793 135.0
69.305663649 176.0
69.310587505 161.0
69.315511361 152.0
69.320435217 167.0
69.325359073 150.0
69.330282929 158.0
69.335206785 142.0
69.340130641 152.0
69.345054497 171.0
69.349978353 145.0
69.354902209 181.0
69.359826065 162.0
69.364749921 162.0
69.369673777 138.0
69.374597633 141.0
69.379521489 161.0
69.384445345 147.0
69.389369201 121.0
69.394293057 149.0
69.399216913 129.0
69.404140769 129.0
69.409064625 150.0
69.413988481 139.0
69.418912337 147.0
69.423836193 135.0
69.428760049 121.0
69.433683905 123.0
69.438607761 145.0
69.443531617 133.0
69.448455473 135.0
69.453379329 132.0
69.458303185 139.0
69.463227041 142.0
69.468150897 120.0
69.473074753 134.0
69.477998609 142.0
69.482922465 109.0
69.487846321 113.0
69.492770177 140.0
69.497694033 118.0
69.502617889 137.0
69.507541745 112.0
69.512465601 106.0
69.517389457 112.0
69.522313313 118.0
69.527237169 126.0
69.532161025 113.0
69.537084881 113.0
69.542008737 107.0
69.546932593 118.0
69.551856449 112.0
69.556780305 113.0
69.561704161 118.0
69.566628017 104.0
69.571551873 101.0
69.576475729 118.0
69.581399585 116.0
69.586323441 111.0
69.591247297 122.0
69.596171153 106.0
69.601095009 94.0
69.606018865 102.0
69.610942721 95.0
69.615866577 102.0
69.620790433 107.0
69.625714289 102.0
69.630638146 93.0
69.635562002 111.0
69.640485858 118.0
69.645409714 103.0
69.650333570 99.0
69.655257426 105.0
69.660181282 96.0
69.665105138 106.0
69.670028994 104.0
69.674952850 92.0
69.679876706 98.0
69.684800562 98.0
69.689724418 91.0
69.694648274 92.0
69.699572130 101.0
69.704495986 90.0
69.709419842 83.0
69.714343698 77.0
69.719267554 94.0
69.724191410 91.0
69.729115266 99.0
69.734039122 99.0
69.738962978 89.0
69.743886834 88.0
69.748810690 89.0
69.753734546 85.0
69.758658402 100.0
69.763582258 81.0
69.768506114 74.0
69.773429970 66.0
69.778353826 89.0
69.783277682 76.0
69.788201538 88.0
69.793125394 73.0
69.798049250 80.0
69.802973106 82.0
69.807896962 82.0
69.812820818 66.0
69.817744674 80.0
69.822668530 84.0
69.827592386 74.0
69.832516242 85.0
69.837440098 75.0
69.842363954 79.0
69.847287810 84.0
69.852211666 79.0
69.857135522 68.0
69.862059378 71.0
69.866983234 66.0
69.871907090 73.0
69.876830946 76.0
69.881754802 69.0
69.886678658 71.0
69.891602514 72.0
69.896526370 64.0
69.901450226 63.0
69.906374082 86.0
69.911297938 61.0
69.916221794 76.0
69.921145650 75.0
69.926069506 58.0
69.930993362 76.0
69.935917218 51.0
69.940841074 59.0
69.945764930 64.0
69.950688786 63.0
69.955612642 68.0
69.960536498 61.0
69.965460354 59.0
69.970384210 65.0
69.975308066 74.0
69.980231922 75.0
69.985155778 47.0
69.990079634 61.0
69.995003490 60.0
69.999927347 68.0
70.004851203 57.0
70.009775059 53.0
70.014698915 63.0
70.019622771 51.0
70.024546627 61.0
70.029470483 76.0
70.034394339 51.0
70.039318195 54.0
70.044242051 57.0
70.049165907 66.0
70.054089763 68.0
70.059013619 64.0
70.063937475 56.0
70.068861331 53.0
70.073785187 62.0
70.078709043 64.0
70.083632899 57.0
70.088556755 52.0
70.093480611 58.0
70.098404467 59.0
70.103328323 50.0
70.108252179 53.0
70.113176035 55.0
70.118099891 47.0
70.123023747 42.0
70.127947603 49.0
70.132871459 44.0
70.137795315 50.0
70.142719171 45.0
70.147643027 55.0
70.152566883 43.0
70.157490739 59.0
70.162414595 59.0
70.167338451 58.0
70.172262307 45.0
70.177186163 62.0
70.182110019 57.0
70.187033875 44.0
70.191957731 62.0
70.196881587 44.0
70.201805443 57.0
70.206729299 51.0
70.211653155 42.0
70.216577011 43.0
70.221500867 53.0
70.226424723 37.0
70.231348579 42.0
70.236272435 47.0
70.241196291 50.0
70.246120147 30.0
70.251044003 38.0
70.255967859 48.0
70.260891715 34.0
70.265815571 46.0
70.270739427 37.0
70.275663283 39.0
70.280587139 39.0
70.285510995 32.0
70.290434851 38.0
70.295358707 42.0
70.300282563 43.0
70.305206419 39.0
70.310130275 37.0
70.315054131 39.0
70.319977987 45.0
70.324901843 42.0
70.329825699 57.0
70.334749555 48.0
70.339673411 36.0
70.344597267 49.0
70.349521123 46.0
70.354444979 45.0
70.359368835 39.0
70.364292691 42.0
70.369216548 38.0
70.374140404 44.0
70.379064260 36.0
70.383988116 54.0
70.388911972 29.0
70.393835828 43.0
70.398759684 44.0
70.403683540 37.0
70.408607396 55.0
70.413531252 41.0
70.418455108 34.0
70.423378964 41.0
70.428302820 37.0
70.433226676 48.0
70.438150532 35.0
70.443074388 37.0
70.447998244 51.0
70.452922100 34.0
70.457845956 38.0
70.462769812 35.0
70.467693668 40.0
70.472617524 26.0
70.477541380 36.0
70.482465236 45.0
70.487389092 23.0
70.492312948 46.0
70.497236804 47.0
70.502160660 33.0
70.507084516 28.0
70.512008372 42.0
70.516932228 44.0
70.521856084 30.0
70.526779940 54.0
70.531703796 29.0
70.536627652 30.0
70.541551508 36.0
70.546475364 33.0
70.551399220 30.0
70.556323076 36.0
70.561246932 39.0
70.566170788 36.0
70.571094644 29.0
70.576018500 42.0
70.580942356 31.0
70.585866212 25.0
70.590790068 31.0
70.595713924 30.0
70.600637780 34.0
70.605561636 36.0
70.610485492 26.0
70.615409348 41.0
70.620333204 23.0
70.625257060 33.0
70.630180916 35.0
70.635104772 30.0
70.640028628 24.0
70.644952484 38.0
70.649876340 30.0
70.654800196 32.0
70.659724052 34.0
70.664647908 38.0
70.669571764 32.0
70.674495620 36.0
70.679419476 34.0
70.684343332 25.0
70.689267188 27.0
70.694191044 41.0
70.699114900 31.0
70.704038756 26.0
70.708962612 31.0
70.713886468 39.0
70.718810324 30.0
70.723734180 31.0
70.728658036 26.0
70.733581892 37.0
70.738505748 30.0
70.743429605 25.0
70.748353461 31.0
70.753277317 32.0
70.758201173 33.0
70.763125029 27.0
70.768048885 39.0
70.772972741 31.0
70.777896597 27.0
70.782820453 30.0
70.787744309 38.0
70.792668165 27.0
70.797592021 32.0
70.802515877 37.0
70.807439733 22.0
70.812363589 34.0
70.817287445 44.0
70.822211301 28.0
70.827135157 25.0
70.832059013 39.0
70.836982869 32.0
70.841906725 33.0
70.846830581 30.0
70.851754437 37.0
70.856678293 24.0
70.861602149 35.0
70.866526005 28.0
70.871449861 26.0
70.876373717 26.0
70.881297573 24.0
70.886221429 27.0
70.891145285 32.0
70.896069141 32.0
70.900992997 30.0
70.905916853 28.0
70.910840709 28.0
70.915764565 35.0
70.920688421 30.0
70.925612277 35.0
70.930536133 26.0
70.935459989 29.0
70.940383845 23.0
70.945307701 20.0
70.950231557 26.0
70.955155413 22.0
70.960079269 32.0
70.965003125 29.0
70.969926981 31.0
70.974850837 20.0
70.979774693 25.0
70.984698549 22.0
70.989622405 21.0
70.994546261 27.0
70.999470117 30.0
71.004393973 30.0
71.009317829 27.0
71.014241685 21.0
71.019165541 33.0
71.024089397 29.0
71.029013253 34.0
71.033937109 25.0
71.038860965 23.0
71.043784821 32.0
71.048708677 21.0
71.053632533 27.0
71.058556389 21.0
71.063480245 38.0
71.068404101 25.0
71.073327957 21.0
71.078251813 16.0
71.083175669 25.0
71.088099525 36.0
71.093023381 25.0
71.097947237 27.0
71.102871093 30.0
71.107794949 21.0
71.112718806 22.0
71.117642662 20.0
71.122566518 23.0
71.127490374 23.0
71.132414230 23.0
71.137338086 12.0
71.142261942 23.0
71.147185798 23.0
71.152109654 17.0
71.157033510 32.0
71.161957366 15.0
71.166881222 33.0
71.171805078 35.0
71.176728934 28.0
71.181652790 33.0
71.186576646 21.0
71.191500502 26.0
71.196424358 22.0
71.201348214 31.0
71.206272070 17.0
71.211195926 31.0
71.216119782 21.0
71.221043638 33.0
71.225967494 22.0
71.230891350 22.0
71.235815206 21.0
71.240739062 26.0
71.245662918 23.0
71.250586774 27.0
71.255510630 24.0
71.260434486 27.0
71.265358342 24.0
71.270282198 18.0
71.275206054 16.0
71.280129910 26.0
71.285053766 27.0
71.289977622 30.0
71.294901478 16.0
71.299825334 30.0
71.304749190 26.0
71.309673046 24.0
71.314596902 21.0
71.319520758 26.0
71.324444614 28.0
71.329368470 26.0
71.334292326 15.0
71.339216182 30.0
71.344140038 32.0
71.349063894 24.0
71.353987750 20.0
71.358911606 25.0
71.363835462 25.0
71.368759318 20.0
71.373683174 17.0
71.378607030 18.0
71.383530886 22.0
71.388454742 22.0
71.393378598 22.0
71.398302454 28.0
71.403226310 21.0
71.408150166 23.0
71.413074022 19.0
71.417997878 22.0
71.422921734 21.0
71.427845590 19.0
71.432769446 23.0
71.437693302 24.0
71.442617158 15.0
71.447541014 23.0
71.452464870 30.0
71.457388726 23.0
71.462312582 30.0
71.467236438 19.0
71.472160294 23.0
71.477084150 25.0
71.482008007 20.0
71.486931863 23.0
71.491855719 19.0
71.496779575 23.0
71.501703431 16.0
71.506627287 22.0
71.511551143 21.0
71.516474999 20.0
71.521398855 16.0
71.526322711 17.0
71.531246567 22.0
71.536170423 19.0
71.541094279 18.0
71.546018135 18.0
71.550941991 25.0
71.555865847 21.0
71.560789703 34.0
71.565713559 23.0
71.570637415 31.0
71.575561271 19.0
71.580485127 27.0
71.585408983 21.0
71.590332839 17.0
71.595256695 30.0
71.600180551 17.0
71.605104407 18.0
71.610028263 19.0
71.614952119 24.0
71.619875975 10.0
71.624799831 24.0
71.629723687 23.0
71.634647543 26.0
71.639571399 13.0
71.644495255 28.0
71.649419111 18.0
71.654342967 16.0
71.659266823 26.0
71.664190679 18.0
71.669114535 22.0
71.674038391 18.0
71.678962247 21.0
71.683886103 28.0
71.688809959 24.0
71.693733815 18.0
71.698657671 15.0
71.703581527 21.0
71.708505383 19.0
71.713429239 27.0
71.718353095 20.0
71.723276951 24.0
71.728200807 18.0
71.733124663 18.0
71.738048519 16.0
71.742972375 19.0
71.747896231 15.0
71.752820087 15.0
71.757743943 25.0
71.762667799 26.0
71.767591655 19.0
71.772515511 23.0
71.777439367 20.0
71.782363223 14.0
71.787287079 15.0
71.792210935 14.0
71.797134791 15.0
71.802058647 18.0
71.806982503 14.0
71.811906359 25.0
71.816830215 19.0
71.821754071 15.0
71.826677927 23.0
71.831601783 22.0
71.836525639 14.0
71.841449495 19.0
71.846373351 21.0
71.851297208 18.0
71.856221064 22.0
71.861144920 16.0
71.866068776 18.0
71.870992632 22.0
71.875916488 14.0
71.880840344 21.0
71.885764200 20.0
71.890688056 21.0
71.895611912 13.0
71.900535768 15.0
71.905459624 20.0
71.910383480 20.0
71.915307336 10.0
71.920231192 19.0
71.925155048 22.0
71.930078904 16.0
71.935002760 16.0
71.939926616 15.0
71.944850472 19.0
71.949774328 19.0
71.954698184 13.0
71.959622040 21.0
71.964545896 21.0
71.969469752 21.0
71.974393608 20.0
71.979317464 25.0
71.984241320 20.0
71.989165176 13.0
71.994089032 26.0
71.999012888 15.0
72.003936744 15.0
72.008860600 24.0
72.013784456 17.0
72.018708312 17.0
72.023632168 22.0
72.028556024 15.0
72.033479880 15.0
72.038403736 24.0
72.043327592 27.0
72.048251448 19.0
72.053175304 22.0
72.058099160 24.0
72.063023016 21.0
72.067946872 8.0
72.072870728 16.0
72.077794584 12.0
72.082718440 19.0
72.087642296 20.0
72.092566152 20.0
72.097490008 11.0
72.102413864 12.0
72.107337720 18.0
72.112261576 21.0
72.117185432 19.0
72.122109288 21.0
72.127033144 20.0
72.131957000 22.0
72.136880856 20.0
72.141804712 27.0
72.146728568 15.0
72.151652424 20.0
72.156576280 17.0
72.161500136 15.0
72.166423992 20.0
72.171347848 16.0
72.176271704 16.0
72.181195560 15.0
72.186119416 24.0
72.191043272 17.0
72.195967128 25.0
72.200890984 17.0
72.205814840 20.0
72.210738696 18.0
72.215662552 14.0
72.220586409 19.0
72.225510265 25.0
72.230434121 13.0
72.235357977 19.0
72.240281833 15.0
72.245205689 14.0
72.250129545 25.0
72.255053401 22.0
72.259977257 16.0
72.264901113 15.0
72.269824969 20.0
72.274748825 25.0
72.279672681 15.0
72.284596537 23.0
72.289520393 24.0
72.294444249 20.0
72.299368105 19.0
72.304291961 21.0
72.309215817 18.0
72.314139673 13.0
72.319063529 21.0
72.323987385 22.0
72.328911241 22.0
72.333835097 21.0
72.338758953 19.0
72.343682809 11.0
72.348606665 7.0
72.353530521 20.0
72.358454377 20.0
72.363378233 18.0
72.368302089 19.0
72.373225945 16.0
72.378149801 18.0
72.383073657 19.0
72.387997513 17.0
72.392921369 19.0
72.397845225 17.0
72.402769081 20.0
72.407692937 12.0
72.412616793 21.0
72.417540649 16.0
72.422464505 13.0
72.427388361 17.0
72.432312217 17.0
72.437236073 13.0
72.442159929 25.0
72.447083785 18.0
72.452007641 14.0
72.456931497 17.0
72.461855353 17.0
72.466779209 14.0
72.471703065 14.0
72.476626921 17.0
72.481550777 13.0
72.486474633 18.0
72.491398489 11.0
72.496322345 6.0
72.501246201 12.0
72.506170057 13.0
72.511093913 16.0
72.516017769 15.0
72.520941625 15.0
72.525865481 21.0
72.530789337 16.0
72.535713193 16.0
72.540637049 14.0
72.545560905 17.0
72.550484761 22.0
72.555408617 20.0
72.560332473 17.0
72.565256329 12.0
72.570180185 12.0
72.575104041 10.0
72.580027897 17.0
72.584951753 19.0
72.589875609 12.0
72.594799466 13.0
72.599723322 19.0
72.604647178 19.0
72.609571034 19.0
72.614494890 17.0
72.619418746 11.0
72.624342602 22.0
72.629266458 16.0
72.634190314 19.0
72.639114170 18.0
72.644038026 16.0
72.648961882 19.0
72.653885738 15.0
72.658809594 19.0
72.663733450 21.0
72.668657306 19.0
72.673581162 16.0
72.678505018 15.0
72.683428874 19.0
72.688352730 12.0
72.693276586 10.0
72.698200442 15.0
72.703124298 16.0
72.708048154 16.0
72.712972010 14.0
72.717895866 22.0
72.722819722 11.0
72.727743578 13.0
72.732667434 18.0
72.737591290 19.0
72.742515146 16.0
72.747439002 14.0
72.752362858 14.0
72.757286714 17.0
72.762210570 12.0
72.767134426 19.0
72.772058282 15.0
72.776982138 18.0
72.781905994 21.0
72.786829850 19.0
72.791753706 8.0
72.796677562 13.0
72.801601418 20.0
72.806525274 11.0
72.811449130 14.0
72.816372986 17.0
72.821296842 19.0
72.826220698 14.0
72.831144554 20.0
72.836068410 18.0
72.840992266 12.0
72.845916122 13.0
72.850839978 12.0
72.855763834 13.0
72.860687690 25.0
72.865611546 16.0
72.870535402 19.0
72.875459258 27.0
72.880383114 16.0
72.885306970 14.0
72.890230826 19.0
72.895154682 19.0
72.900078538 19.0
72.905002394 19.0
72.909926250 11.0
72.914850106 28.0
72.919773962 11.0
72.924697818 12.0
72.929621674 12.0
72.934545530 14.0
72.939469386 16.0
72.944393242 22.0
72.949317098 20.0
72.954240954 15.0
72.959164810 15.0
72.964088667 17.0
72.969012523 12.0
72.973936379 22.0
72.978860235 15.0
72.983784091 13.0
72.988707947 15.0
72.993631803 21.0
72.998555659 24.0
73.003479515 22.0
73.008403371 14.0
73.013327227 16.0
73.018251083 16.0
73.023174939 12.0
73.028098795 13.0
73.033022651 8.0
73.037946507 15.0
73.042870363 12.0
73.047794219 15.0
73.052718075 22.0
73.057641931 15.0
73.062565787 14.0
73.067489643 16.0
73.072413499 14.0
73.077337355 12.0
73.082261211 20.0
73.087185067 19.0
73.092108923 14.0
73.097032779 17.0
73.101956635 23.0
73.106880491 17.0
73.111804347 16.0
73.116728203 16.0
73.121652059 17.0
73.126575915 18.0
73.131499771 17.0
73.136423627 11.0
73.141347483 8.0
73.146271339 12.0
73.151195195 23.0
73.156119051 17.0
73.161042907 11.0
73.165966763 13.0
73.170890619 13.0
73.175814475 16.0
73.180738331 16.0
73.185662187 15.0
73.190586043 16.0
73.195509899 12.0
73.200433755 21.0
73.205357611 13.0
73.210281467 15.0
73.215205323 17.0
73.220129179 16.0
73.225053035 13.0
73.229976891 13.0
73.234900747 17.0
73.239824603 20.0
73.244748459 20.0
73.249672315 13.0
73.254596171 14.0
73.259520027 12.0
73.264443883 8.0
73.269367739 8.0
73.274291595 15.0
73.279215451 15.0
73.284139307 22.0
73.289063163 16.0
73.293987019 13.0
73.298910875 7.0
73.303834731 23.0
73.308758587 15.0
73.313682443 13.0
73.318606299 15.0
73.323530155 19.0
73.328454011 18.0
73.333377868 19.0
73.338301724 10.0
73.343225580 15.0
73.348149436 19.0
73.353073292 12.0
73.357997148 13.0
73.362921004 21.0
73.367844860 3.0
73.372768716 22.0
73.377692572 17.0
73.382616428 10.0
73.387540284 10.0
73.392464140 16.0
73.397387996 18.0
73.402311852 10.0
73.407235708 17.0
73.412159564 10.0
73.417083420 14.0
73.422007276 7.0
73.426931132 16.0
73.431854988 16.0
73.436778844 16.0
73.441702700 16.0
73.446626556 12.0
73.451550412 10.0
73.456474268 19.0
73.461398124 14.0
73.466321980 14.0
73.471245836 9.0
73.476169692 13.0
73.481093548 15.0
73.486017404 9.0
73.490941260 7.0
73.495865116 11.0
73.500788972 13.0
73.505712828 14.0
73.510636684 16.0
73.515560540 15.0
73.520484396 10.0
73.525408252 14.0
73.530332108 14.0
73.535255964 14.0
73.540179820 15.0
73.545103676 23.0
73.550027532 11.0
73.554951388 16.0
73.559875244 17.0
73.564799100 17.0
73.569722956 15.0
73.574646812 10.0
73.579570668 10.0
73.584494524 8.0
73.589418380 16.0
73.594342236 14.0
73.599266092 8.0
73.604189948 9.0
73.609113804 11.0
73.614037660 11.0
73.618961516 23.0
73.623885372 14.0
73.628809228 18.0
73.633733084 15.0
73.638656940 11.0
73.643580796 22.0
73.648504652 13.0
73.653428508 11.0
73.658352364 23.0
73.663276220 10.0
73.668200076 11.0
73.673123932 8.0
73.678047788 17.0
73.682971644 6.0
73.687895500 14.0
73.692819356 19.0
73.697743212 21.0
73.702667069 12.0
73.707590925 17.0
73.712514781 16.0
73.717438637 13.0
73.722362493 12.0
73.727286349 17.0
73.732210205 10.0
73.737134061 13.0
73.742057917 8.0
73.746981773 10.0
73.751905629 12.0
73.756829485 17.0
73.761753341 15.0
73.766677197 11.0
73.771601053 31.0
73.776524909 11.0
73.781448765 19.0
73.786372621 12.0
73.791296477 9.0
73.796220333 13.0
73.801144189 9.0
73.806068045 12.0
73.810991901 19.0
73.815915757 13.0
73.820839613 9.0
73.825763469 9.0
73.830687325 10.0
73.835611181 12.0
73.840535037 17.0
73.845458893 13.0
73.850382749 11.0
73.855306605 14.0
73.860230461 11.0
73.865154317 9.0
73.870078173 9.0
73.875002029 18.0
73.879925885 21.0
73.884849741 13.0
73.889773597 18.0
73.894697453 14.0
73.899621309 17.0
73.904545165 14.0
73.909469021 24.0
73.914392877 11.0
73.919316733 12.0
73.924240589 17.0
73.929164445 14.0
73.934088301 19.0
73.939012157 15.0
73.943936013 19.0
73.948859869 15.0
73.953783725 12.0
73.958707581 18.0
73.963631437 19.0
73.968555293 7.0
73.973479149 14.0
73.978403005 15.0
73.983326861 10.0
73.988250717 8.0
73.993174573 17.0
73.998098429 10.0
74.003022285 15.0
74.007946141 8.0
74.012869997 20.0
74.017793853 13.0
74.022717709 13.0
74.027641565 15.0
74.032565421 12.0
74.037489277 9.0
74.042413133 8.0
74.047336989 12.0
74.052260845 12.0
74.057184701 19.0
74.062108557 9.0
74.067032413 15.0
74.071956270 16.0
74.076880126 10.0
74.081803982 13.0
74.086727838 21.0
74.091651694 9.0
74.096575550 20.0
74.101499406 22.0
74.106423262 12.0
74.111347118 13.0
74.116270974 13.0
74.121194830 6.0
74.126118686 12.0
74.131042542 16.0
74.135966398 10.0
74.140890254 14.0
74.145814110 8.0
74.150737966 14.0
74.155661822 18.0
74.160585678 15.0
74.165509534 19.0
74.170433390 15.0
74.175357246 13.0
74.180281102 16.0
74.185204958 9.0
74.190128814 6.0
74.195052670 11.0
74.199976526 13.0
74.204900382 11.0
74.209824238 14.0
74.214748094 9.0
74.219671950 16.0
74.224595806 10.0
74.229519662 15.0
74.234443518 10.0
74.239367374 12.0
74.244291230 17.0
74.249215086 9.0
74.254138942 15.0
74.259062798 15.0
74.263986654 15.0
74.268910510 10.0
74.273834366 9.0
74.278758222 14.0
74.283682078 14.0
74.288605934 10.0
74.293529790 6.0
74.298453646 13.0
74.303377502 13.0
74.308301358 15.0
74.313225214 11.0
74.318149070 12.0
74.323072926 13.0
74.327996782 17.0
74.332920638 16.0
74.337844494 12.0
74.342768350 14.0
74.347692206 11.0
74.352616062 15.0
74.357539918 13.0
74.362463774 13.0
74.367387630 15.0
74.372311486 13.0
74.377235342 11.0
74.382159198 12.0
74.387083054 11.0
74.392006910 12.0
74.396930766 12.0
74.401854622 12.0
74.406778478 13.0
74.411702334 13.0
74.416626190 13.0
74.421550046 12.0
74.426473902 8.0
74.431397758 10.0
74.436321614 13.0
74.441245470 6.0
74.446169327 11.0
74.451093183 17.0
74.456017039 14.0
74.460940895 11.0
74.465864751 6.0
74.470788607 10.0
74.475712463 17.0
74.480636319 6.0
74.485560175 12.0
74.490484031 18.0
74.495407887 13.0
74.500331743 9.0
74.505255599 18.0
74.510179455 15.0
74.515103311 10.0
74.520027167 9.0
74.524951023 8.0
74.529874879 4.0
74.534798735 17.0
74.539722591 15.0
74.544646447 14.0
74.549570303 8.0
74.554494159 22.0
74.559418015 15.0
74.564341871 12.0
74.569265727 13.0
74.574189583 12.0
74.579113439 9.0
74.584037295 5.0
74.588961151 16.0
74.593885007 14.0
74.598808863 14.0
74.603732719 10.0
74.608656575 15.0
74.613580431 9.0
74.618504287 10.0
74.623428143 14.0
74.628351999 9.0
74.633275855 22.0
74.638199711 13.0
74.643123567 15.0
74.648047423 11.0
74.652971279 15.0
74.657895135 15.0
74.662818991 16.0
74.667742847 6.0
74.672666703 16.0
74.677590559 15.0
74.682514415 13.0
74.687438271 11.0
74.692362127 12.0
74.697285983 14.0
74.702209839 7.0
74.707133695 11.0
74.712057551 6.0
74.716981407 10.0
74.721905263 11.0
74.726829119 13.0
74.731752975 12.0
74.736676831 12.0
74.741600687 9.0
74.746524543 15.0
74.751448399 11.0
74.756372255 12.0
74.761296111 10.0
74.766219967 15.0
74.771143823 7.0
74.776067679 14.0
74.780991535 13.0
74.785915391 10.0
74.790839247 9.0
74.795763103 16.0
74.800686959 19.0
74.805610815 8.0
74.810534671 15.0
74.815458528 14.0
74.820382384 8.0
74.825306240 10.0
74.830230096 15.0
74.835153952 14.0
74.840077808 10.0
74.845001664 8.0
74.849925520 15.0
74.854849376 16.0
74.859773232 15.0
74.864697088 4.0
74.869620944 9.0
74.874544800 11.0
74.879468656 11.0
74.884392512 11.0
74.889316368 17.0
74.894240224 11.0
74.899164080 13.0
74.904087936 24.0
74.909011792 9.0
74.913935648 13.0
74.918859504 9.0
74.923783360 12.0
74.928707216 5.0
74.933631072 9.0
74.938554928 13.0
74.943478784 13.0
74.948402640 15.0
74.953326496 10.0
74.958250352 20.0
74.963174208 9.0
74.968098064 14.0
74.973021920 11.0
74.977945776 14.0
74.982869632 12.0
74.987793488 12.0
74.992717344 16.0
74.997641200 18.0
