55.001861930 52.0
55.006785786 56.0
55.011709642 56.0
55.016633498 69.0
55.021557354 70.0
55.026481210 57.0
55.031405066 68.0
55.036328922 64.0
55.041252778 54.0
55.046176634 63.0
55.051100490 45.0
55.056024346 64.0
55.060948202 60.0
55.065872058 47.0
55.070795914 54.0
55.075719770 50.0
55.080643626 57.0
55.085567482 66.0
55.090491338 65.0
55.095415194 64.0
55.100339050 67.0
55.105262906 39.0
55.110186762 59.0
55.115110618 64.0
55.120034474 70.0
55.124958330 68.0
55.129882186 57.0
55.134806042 61.0
55.139729898 57.0
55.144653754 61.0
55.149577610 69.0
55.154501466 43.0
55.159425322 60.0
55.164349178 51.0
55.169273034 54.0
55.174196890 60.0
55.179120746 62.0
55.184044602 61.0
55.188968459 72.0
55.193892315 57.0
55.198816171 52.0
55.203740027 56.0
55.208663883 54.0
55.213587739 53.0
55.218511595 69.0
55.223435451 51.0
55.228359307 57.0
55.233283163 53.0
55.238207019 67.0
55.243130875 63.0
55.248054731 61.0
55.252978587 66.0
55.257902443 64.0
55.262826299 57.0
55.267750155 62.0
55.272674011 71.0
55.277597867 65.0
55.282521723 55.0
55.287445579 72.0
55.292369435 73.0
55.297293291 45.0
55.302217147 55.0
55.307141003 58.0
55.312064859 70.0
55.316988715 56.0
55.321912571 64.0
55.326836427 58.0
55.331760283 67.0
55.336684139 59.0
55.341607995 67.0
55.346531851 53.0
55.351455707 65.0
55.356379563 57.0
55.361303419 55.0
55.366227275 55.0
55.371151131 45.0
55.376074987 57.0
55.380998843 55.0
55.385922699 60.0
55.390846555 50.0
55.395770411 56.0
55.400694267 65.0
55.405618123 67.0
55.410541979 53.0
55.415465835 50.0
55.420389691 68.0
55.425313547 64.0
55.430237403 63.0
55.435161259 58.0
55.440085115 56.0
55.445008971 54.0
55.449932827 69.0
55.454856683 73.0
55.459780539 61.0
55.464704395 59.0
55.469628251 57.0
55.474552107 53.0
55.479475963 69.0
55.484399819 58.0
55.489323675 57.0
55.494247531 56.0
55.499171387 60.0
55.504095243 60.0
55.509019099 78.0
55.513942955 67.0
55.518866811 61.0
55.523790667 61.0
55.528714523 76.0
55.533638379 75.0
55.538562235 76.0
55.543486091 69.0
55.548409947 54.0
55.553333803 57.0
55.558257660 67.0
55.563181516 66.0
55.568105372 51.0
55.573029228 65.0
55.577953084 70.0
55.582876940 61.0
55.587800796 68.0
55.592724652 63.0
55.597648508 48.0
55.602572364 52.0
55.607496220 56.0
55.612420076 51.0
55.617343932 68.0
55.622267788 67.0
55.627191644 68.0
55.632115500 72.0
55.637039356 66.0
55.641963212 59.0
55.646887068 52.0
55.651810924 69.0
55.656734780 55.0
55.661658636 62.0
55.666582492 50.0
55.671506348 71.0
55.676430204 63.0
55.681354060 67.0
55.686277916 75.0
55.691201772 74.0
55.696125628 69.0
55.701049484 55.0
55.705973340 64.0
55.710897196 69.0
55.715821052 52.0
55.720744908 64.0
55.725668764 59.0
55.730592620 62.0
55.735516476 61.0
55.740440332 63.0
55.745364188 73.0
55.750288044 65.0
55.755211900 69.0
55.760135756 63.0
55.765059612 54.0
55.769983468 68.0
55.774907324 67.0
55.779831180 59.0
55.784755036 56.0
55.789678892 64.0
55.794602748 66.0
55.799526604 66.0
55.804450460 72.0
55.809374316 62.0
55.814298172 54.0
55.819222028 68.0
55.824145884 57.0
55.829069740 50.0
55.833993596 62.0
55.838917452 61.0
55.843841308 55.0
55.848765164 53.0
55.853689020 54.0
55.858612876 55.0
55.863536732 71.0
55.868460588 61.0
55.873384444 56.0
55.878308300 61.0
55.883232156 59.0
55.888156012 51.0
55.893079868 50.0
55.898003724 49.0
55.902927580 49.0
55.907851436 63.0
55.912775292 59.0
55.917699148 69.0
55.922623004 53.0
55.927546860 56.0
55.932470717 64.0
55.937394573 74.0
55.942318429 63.0
55.947242285 53.0
55.952166141 50.0
55.957089997 52.0
55.962013853 67.0
55.966937709 70.0
55.971861565 61.0
55.976785421 54.0
55.981709277 56.0
55.986633133 53.0
55.991556989 64.0
55.996480845 58.0
56.001404701 58.0
56.006328557 64.0
56.011252413 58.0
56.016176269 62.0
56.021100125 56.0
56.026023981 74.0
56.030947837 66.0
56.035871693 58.0
56.040795549 57.0
56.045719405 58.0
56.050643261 46.0
56.055567117 56.0
56.060490973 67.0
56.065414829 70.0
56.070338685 52.0
56.075262541 56.0
56.080186397 67.0
56.085110253 65.0
56.090034109 68.0
56.094957965 59.0
56.099881821 72.0
56.104805677 68.0
56.109729533 70.0
56.114653389 60.0
56.119577245 70.0
56.124501101 39.0
56.129424957 60.0
56.134348813 43.0
56.139272669 68.0
56.144196525 64.0
56.149120381 74.0
56.154044237 53.0
56.158968093 59.0
56.163891949 62.0
56.168815805 52.0
56.173739661 58.0
56.178663517 72.0
56.183587373 63.0
56.188511229 64.0
56.193435085 73.0
56.198358941 55.0
56.203282797 74.0
56.208206653 60.0
56.213130509 63.0
56.218054365 66.0
56.222978221 63.0
56.227902077 57.0
56.232825933 66.0
56.237749789 59.0
56.242673645 50.0
56.247597501 56.0
56.252521357 59.0
56.257445213 63.0
56.262369069 82.0
56.267292925 59.0
56.272216781 64.0
56.277140637 57.0
56.282064493 61.0
56.286988349 62.0
56.291912205 58.0
56.296836061 54.0
56.301759918 60.0
56.306683774 70.0
56.311607630 67.0
56.316531486 60.0
56.321455342 69.0
56.326379198 51.0
56.331303054 58.0
56.336226910 56.0
56.341150766 68.0
56.346074622 60.0
56.350998478 61.0
56.355922334 66.0
56.360846190 62.0
56.365770046 58.0
56.370693902 60.0
56.375617758 59.0
56.380541614 50.0
56.385465470 64.0
56.390389326 52.0
56.395313182 66.0
56.400237038 77.0
56.405160894 67.0
56.410084750 61.0
56.415008606 45.0
56.419932462 60.0
56.424856318 68.0
56.429780174 60.0
56.434704030 52.0
56.439627886 64.0
56.444551742 62.0
56.449475598 51.0
56.454399454 60.0
56.459323310 56.0
56.464247166 49.0
56.469171022 59.0
56.474094878 50.0
56.479018734 51.0
56.483942590 53.0
56.488866446 56.0
56.493790302 50.0
56.498714158 56.0
56.503638014 45.0
56.508561870 69.0
56.513485726 54.0
56.518409582 54.0
56.523333438 70.0
56.528257294 47.0
56.533181150 64.0
56.538105006 62.0
56.543028862 67.0
56.547952718 58.0
56.552876574 68.0
56.557800430 73.0
56.562724286 72.0
56.567648142 59.0
56.572571998 55.0
56.577495854 66.0
56.582419710 59.0
56.587343566 64.0
56.592267422 66.0
56.597191278 59.0
56.602115134 59.0
56.607038990 49.0
56.611962846 52.0
56.616886702 52.0
56.621810558 56.0
56.626734414 47.0
56.631658270 59.0
56.636582126 47.0
56.641505982 58.0
56.646429838 55.0
56.651353694 64.0
56.656277550 64.0
56.661201406 61.0
56.666125262 54.0
56.671049119 60.0
56.675972975 52.0
56.680896831 57.0
56.685820687 64.0
56.690744543 57.0
56.695668399 71.0
56.700592255 83.0
56.705516111 64.0
56.710439967 63.0
56.715363823 69.0
56.720287679 50.0
56.725211535 61.0
56.730135391 73.0
56.735059247 63.0
56.739983103 72.0
56.744906959 58.0
56.749830815 76.0
56.754754671 65.0
56.759678527 62.0
56.764602383 70.0
56.769526239 59.0
56.774450095 67.0
56.779373951 72.0
56.784297807 66.0
56.789221663 55.0
56.794145519 59.0
56.799069375 53.0
56.803993231 62.0
56.808917087 58.0
56.813840943 61.0
56.818764799 59.0
56.823688655 43.0
56.828612511 58.0
56.833536367 60.0
56.838460223 60.0
56.843384079 56.0
56.848307935 48.0
56.853231791 52.0
56.858155647 68.0
56.863079503 67.0
56.868003359 63.0
56.872927215 61.0
56.877851071 71.0
56.882774927 51.0
56.887698783 45.0
56.892622639 69.0
56.897546495 44.0
56.902470351 69.0
56.907394207 67.0
56.912318063 50.0
56.917241919 66.0
56.922165775 51.0
56.927089631 67.0
56.932013487 55.0
56.936937343 46.0
56.941861199 61.0
56.946785055 58.0
56.951708911 62.0
56.956632767 59.0
56.961556623 56.0
56.966480479 57.0
56.971404335 62.0
56.976328191 61.0
56.981252047 67.0
56.986175903 61.0
56.991099759 62.0
56.996023615 61.0
57.000947471 56.0
57.005871327 50.0
57.010795183 60.0
57.015719039 60.0
57.020642895 61.0
57.025566751 59.0
57.030490607 63.0
57.035414463 62.0
57.040338320 62.0
57.045262176 64.0
57.050186032 68.0
57.055109888 47.0
57.060033744 67.0
57.064957600 59.0
57.069881456 60.0
57.074805312 59.0
57.079729168 52.0
57.084653024 61.0
57.089576880 53.0
57.094500736 64.0
57.099424592 57.0
57.104348448 62.0
57.109272304 62.0
57.114196160 64.0
57.119120016 66.0
57.124043872 67.0
57.128967728 58.0
57.133891584 63.0
57.138815440 64.0
57.143739296 49.0
57.148663152 45.0
57.153587008 55.0
57.158510864 54.0
57.163434720 60.0
57.168358576 57.0
57.173282432 67.0
57.178206288 60.0
57.183130144 58.0
57.188054000 53.0
57.192977856 69.0
57.197901712 62.0
57.202825568 64.0
57.207749424 72.0
57.212673280 55.0
57.217597136 64.0
57.222520992 69.0
57.227444848 67.0
57.232368704 71.0
57.237292560 58.0
57.242216416 61.0
57.247140272 64.0
57.252064128 73.0
57.256987984 57.0
57.261911840 59.0
57.266835696 72.0
57.271759552 53.0
57.276683408 62.0
57.281607264 69.0
57.286531120 59.0
57.291454976 60.0
57.296378832 60.0
57.301302688 63.0
57.306226544 56.0
57.311150400 56.0
57.316074256 64.0
57.320998112 59.0
57.325921968 54.0
57.330845824 65.0
57.335769680 60.0
57.340693536 58.0
57.345617392 54.0
57.350541248 51.0
57.355465104 61.0
57.360388960 73.0
57.365312816 56.0
57.370236672 61.0
57.375160528 65.0
57.380084384 67.0
57.385008240 58.0
57.389932096 83.0
57.394855952 61.0
57.399779808 61.0
57.404703664 58.0
57.409627521 59.0
57.414551377 74.0
57.419475233 58.0
57.424399089 53.0
57.429322945 48.0
57.434246801 55.0
57.439170657 58.0
57.444094513 65.0
57.449018369 64.0
57.453942225 54.0
57.458866081 69.0
57.463789937 71.0
57.468713793 59.0
57.473637649 67.0
57.478561505 68.0
57.483485361 58.0
57.488409217 49.0
57.493333073 62.0
57.498256929 74.0
57.503180785 57.0
57.508104641 57.0
57.513028497 53.0
57.517952353 63.0
57.522876209 49.0
57.527800065 79.0
57.532723921 50.0
57.537647777 46.0
57.542571633 68.0
57.547495489 63.0
57.552419345 72.0
57.557343201 57.0
57.562267057 62.0
57.567190913 61.0
57.572114769 56.0
57.577038625 66.0
57.581962481 64.0
57.586886337 53.0
57.591810193 54.0
57.596734049 55.0
57.601657905 52.0
57.606581761 78.0
57.611505617 63.0
57.616429473 59.0
57.621353329 62.0
57.626277185 64.0
57.631201041 65.0
57.636124897 64.0
57.641048753 75.0
57.645972609 65.0
57.650896465 61.0
57.655820321 78.0
57.660744177 52.0
57.665668033 60.0
57.670591889 55.0
57.675515745 60.0
57.680439601 75.0
57.685363457 66.0
57.690287313 57.0
57.695211169 71.0
57.700135025 75.0
57.705058881 66.0
57.709982737 68.0
57.714906593 60.0
57.719830449 60.0
57.724754305 56.0
57.729678161 51.0
57.734602017 66.0
57.739525873 67.0
57.744449729 76.0
57.749373585 59.0
57.754297441 74.0
57.759221297 66.0
57.764145153 67.0
57.769069009 78.0
57.773992865 71.0
57.778916721 88.0
57.783840578 66.0
57.788764434 47.0
57.793688290 79.0
57.798612146 74.0
57.803536002 68.0
57.808459858 72.0
57.813383714 54.0
57.818307570 80.0
57.823231426 85.0
57.828155282 66.0
57.833079138 62.0
57.838002994 95.0
57.842926850 83.0
57.847850706 66.0
57.852774562 91.0
57.857698418 85.0
57.862622274 83.0
57.867546130 95.0
57.872469986 86.0
57.877393842 69.0
57.882317698 112.0
57.887241554 66.0
57.892165410 92.0
57.897089266 94.0
57.902013122 104.0
57.906936978 75.0
57.911860834 90.0
57.916784690 110.0
57.921708546 80.0
57.926632402 93.0
57.931556258 90.0
57.936480114 87.0
57.941403970 97.0
57.946327826 101.0
57.951251682 78.0
57.956175538 90.0
57.961099394 86.0
57.966023250 90.0
57.970947106 97.0
57.975870962 81.0
57.980794818 90.0
57.985718674 69.0
57.990642530 78.0
57.995566386 82.0
58.000490242 82.0
58.005414098 74.0
58.010337954 64.0
58.015261810 81.0
58.020185666 56.0
58.025109522 63.0
58.030033378 71.0
58.034957234 78.0
58.039881090 75.0
58.044804946 79.0
58.049728802 81.0
58.054652658 89.0
58.059576514 69.0
58.064500370 62.0
58.069424226 76.0
58.074348082 77.0
58.079271938 66.0
58.084195794 68.0
58.089119650 68.0
58.094043506 69.0
58.098967362 63.0
58.103891218 65.0
58.108815074 57.0
58.113738930 59.0
58.118662786 59.0
58.123586642 67.0
58.128510498 61.0
58.133434354 55.0
58.138358210 73.0
58.143282066 62.0
58.148205922 63.0
58.153129779 57.0
58.158053635 59.0
58.162977491 60.0
58.167901347 70.0
58.172825203 66.0
58.177749059 70.0
58.182672915 58.0
58.187596771 67.0
58.192520627 63.0
58.197444483 71.0
58.202368339 71.0
58.207292195 73.0
58.212216051 73.0
58.217139907 69.0
58.222063763 49.0
58.226987619 54.0
58.231911475 61.0
58.236835331 64.0
58.241759187 57.0
58.246683043 63.0
58.251606899 69.0
58.256530755 71.0
58.261454611 59.0
58.266378467 55.0
58.271302323 55.0
58.276226179 56.0
58.281150035 47.0
58.286073891 63.0
58.290997747 65.0
58.295921603 56.0
58.300845459 69.0
58.305769315 58.0
58.310693171 68.0
58.315617027 63.0
58.320540883 75.0
58.325464739 61.0
58.330388595 51.0
58.335312451 66.0
58.340236307 70.0
58.345160163 79.0
58.350084019 66.0
58.355007875 62.0
58.359931731 67.0
58.364855587 66.0
58.369779443 70.0
58.374703299 67.0
58.379627155 74.0
58.384551011 57.0
58.389474867 58.0
58.394398723 68.0
58.399322579 61.0
58.404246435 78.0
58.409170291 61.0
58.414094147 57.0
58.419018003 74.0
58.423941859 47.0
58.428865715 53.0
58.433789571 60.0
58.438713427 44.0
58.443637283 58.0
58.448561139 74.0
58.453484995 65.0
58.458408851 51.0
58.463332707 48.0
58.468256563 61.0
58.473180419 67.0
58.478104275 66.0
58.483028131 80.0
58.487951987 48.0
58.492875843 60.0
58.497799699 66.0
58.502723555 61.0
58.507647411 56.0
58.512571267 60.0
58.517495123 57.0
58.522418980 60.0
58.527342836 60.0
58.532266692 61.0
58.537190548 48.0
58.542114404 48.0
58.547038260 56.0
58.551962116 58.0
58.556885972 61.0
58.561809828 73.0
58.566733684 48.0
58.571657540 68.0
58.576581396 51.0
58.581505252 66.0
58.586429108 72.0
58.591352964 55.0
58.596276820 67.0
58.601200676 69.0
58.606124532 60.0
58.611048388 54.0
58.615972244 67.0
58.620896100 58.0
58.625819956 61.0
58.630743812 67.0
58.635667668 56.0
58.640591524 64.0
58.645515380 66.0
58.650439236 64.0
58.655363092 61.0
58.660286948 65.0
58.665210804 72.0
58.670134660 66.0
58.675058516 57.0
58.679982372 68.0
58.684906228 51.0
58.689830084 49.0
58.694753940 58.0
58.699677796 66.0
58.704601652 72.0
58.709525508 73.0
58.714449364 61.0
58.719373220 70.0
58.724297076 59.0
58.729220932 69.0
58.734144788 66.0
58.739068644 54.0
58.743992500 57.0
58.748916356 57.0
58.753840212 48.0
58.758764068 63.0
58.763687924 55.0
58.768611780 60.0
58.773535636 64.0
58.778459492 62.0
58.783383348 69.0
58.788307204 58.0
58.793231060 71.0
58.798154916 60.0
58.803078772 53.0
58.808002628 53.0
58.812926484 63.0
58.817850340 59.0
58.822774196 55.0
58.827698052 71.0
58.832621908 57.0
58.837545764 55.0
58.842469620 69.0
58.847393476 56.0
58.852317332 53.0
58.857241188 60.0
58.862165044 66.0
58.867088900 69.0
58.872012756 66.0
58.876936612 51.0
58.881860468 56.0
58.886784324 65.0
58.891708181 63.0
58.896632037 61.0
58.901555893 64.0
58.906479749 51.0
58.911403605 69.0
58.916327461 56.0
58.921251317 54.0
58.926175173 51.0
58.931099029 53.0
58.936022885 58.0
58.940946741 67.0
58.945870597 59.0
58.950794453 63.0
58.955718309 62.0
58.960642165 46.0
58.965566021 67.0
58.970489877 75.0
58.975413733 51.0
58.980337589 51.0
58.985261445 50.0
58.990185301 59.0
58.995109157 56.0
59.000033013 53.0
59.004956869 66.0
59.009880725 65.0
59.014804581 61.0
59.019728437 59.0
59.024652293 54.0
59.029576149 61.0
59.034500005 61.0
59.039423861 78.0
59.044347717 63.0
59.049271573 62.0
59.054195429 53.0
59.059119285 54.0
59.064043141 56.0
59.068966997 60.0
59.073890853 52.0
59.078814709 64.0
59.083738565 80.0
59.088662421 43.0
59.093586277 72.0
59.098510133 66.0
59.103433989 48.0
59.108357845 70.0
59.113281701 63.0
59.118205557 49.0
59.123129413 57.0
59.128053269 54.0
59.132977125 74.0
59.137900981 60.0
59.142824837 80.0
59.147748693 54.0
59.152672549 44.0
59.157596405 47.0
59.162520261 67.0
59.167444117 64.0
59.172367973 62.0
59.177291829 75.0
59.182215685 57.0
59.187139541 67.0
59.192063397 60.0
59.196987253 65.0
59.201911109 52.0
59.206834965 52.0
59.211758821 49.0
59.216682677 71.0
59.221606533 70.0
59.226530389 60.0
59.231454245 66.0
59.236378101 57.0
59.241301957 66.0
59.246225813 56.0
59.251149669 54.0
59.256073525 64.0
59.260997382 67.0
59.265921238 65.0
59.270845094 51.0
59.275768950 64.0
59.280692806 65.0
59.285616662 56.0
59.290540518 53.0
59.295464374 66.0
59.300388230 74.0
59.305312086 61.0
59.310235942 65.0
59.315159798 60.0
59.320083654 60.0
59.325007510 52.0
59.329931366 70.0
59.334855222 46.0
59.339779078 62.0
59.344702934 61.0
59.349626790 48.0
59.354550646 79.0
59.359474502 56.0
59.364398358 49.0
59.369322214 72.0
59.374246070 57.0
59.379169926 60.0
59.384093782 74.0
59.389017638 65.0
59.393941494 75.0
59.398865350 46.0
59.403789206 64.0
59.408713062 73.0
59.413636918 51.0
59.418560774 70.0
59.423484630 50.0
59.428408486 56.0
59.433332342 73.0
59.438256198 64.0
59.443180054 59.0
59.448103910 74.0
59.453027766 59.0
59.457951622 47.0
59.462875478 65.0
59.467799334 62.0
59.472723190 66.0
59.477647046 51.0
59.482570902 57.0
59.487494758 53.0
59.492418614 54.0
59.497342470 56.0
59.502266326 47.0
59.507190182 54.0
59.512114038 70.0
59.517037894 60.0
59.521961750 63.0
59.526885606 66.0
59.531809462 42.0
59.536733318 63.0
59.541657174 43.0
59.546581030 75.0
59.551504886 64.0
59.556428742 49.0
59.561352598 70.0
59.566276454 49.0
59.571200310 69.0
59.576124166 56.0
59.581048022 71.0
59.585971878 56.0
59.590895734 59.0
59.595819590 62.0
59.600743446 52.0
59.605667302 62.0
59.610591158 78.0
59.615515014 62.0
59.620438870 54.0
59.625362726 71.0
59.630286582 60.0
59.635210439 59.0
59.640134295 58.0
59.645058151 58.0
59.649982007 58.0
59.654905863 56.0
59.659829719 55.0
59.664753575 62.0
59.669677431 58.0
59.674601287 65.0
59.679525143 79.0
59.684448999 58.0
59.689372855 60.0
59.694296711 74.0
59.699220567 57.0
59.704144423 66.0
59.709068279 63.0
59.713992135 51.0
59.718915991 50.0
59.723839847 69.0
59.728763703 63.0
59.733687559 66.0
59.738611415 78.0
59.743535271 64.0
59.748459127 55.0
59.753382983 75.0
59.758306839 65.0
59.763230695 63.0
59.768154551 68.0
59.773078407 58.0
59.778002263 55.0
59.782926119 54.0
59.787849975 66.0
59.792773831 57.0
59.797697687 76.0
59.802621543 48.0
59.807545399 64.0
59.812469255 63.0
59.817393111 58.0
59.822316967 54.0
59.827240823 58.0
59.832164679 58.0
59.837088535 76.0
59.842012391 60.0
59.846936247 73.0
59.851860103 64.0
59.856783959 60.0
59.861707815 53.0
59.866631671 68.0
59.871555527 54.0
59.876479383 54.0
59.881403239 58.0
59.886327095 45.0
59.891250951 57.0
59.896174807 53.0
59.901098663 54.0
59.906022519 58.0
59.910946375 55.0
59.915870231 70.0
59.920794087 53.0
59.925717943 68.0
59.930641799 69.0
59.935565655 51.0
59.940489511 48.0
59.945413367 62.0
59.950337223 66.0
59.955261079 57.0
59.960184935 56.0
59.965108791 50.0
59.970032647 62.0
59.974956503 51.0
59.979880359 57.0
59.984804215 59.0
59.989728071 63.0
59.994651927 59.0
59.999575783 59.0
60.004499640 50.0
60.009423496 53.0
60.014347352 63.0
60.019271208 67.0
60.024195064 66.0
60.029118920 64.0
60.034042776 62.0
60.038966632 56.0
60.043890488 49.0
60.048814344 54.0
60.053738200 62.0
60.058662056 62.0
60.063585912 77.0
60.068509768 60.0
60.073433624 65.0
60.078357480 64.0
60.083281336 72.0
60.088205192 60.0
60.093129048 68.0
60.098052904 60.0
60.102976760 50.0
60.107900616 65.0
60.112824472 70.0
60.117748328 70.0
60.122672184 54.0
60.127596040 66.0
60.132519896 58.0
60.137443752 62.0
60.142367608 66.0
60.147291464 74.0
60.152215320 80.0
60.157139176 56.0
60.162063032 51.0
60.166986888 64.0
60.171910744 60.0
60.176834600 61.0
60.181758456 70.0
60.186682312 64.0
60.191606168 57.0
60.196530024 70.0
60.201453880 55.0
60.206377736 62.0
60.211301592 81.0
60.216225448 64.0
60.221149304 66.0
60.226073160 64.0
60.230997016 60.0
60.235920872 67.0
60.240844728 47.0
60.245768584 55.0
60.250692440 79.0
60.255616296 68.0
60.260540152 65.0
60.265464008 57.0
60.270387864 62.0
60.275311720 63.0
60.280235576 74.0
60.285159432 81.0
60.290083288 72.0
60.295007144 56.0
60.299931000 68.0
60.304854856 68.0
60.309778712 80.0
60.314702568 71.0
60.319626424 85.0
60.324550280 62.0
60.329474136 61.0
60.334397992 69.0
60.339321848 58.0
60.344245704 62.0
60.349169560 55.0
60.354093416 74.0
60.359017272 60.0
60.363941128 60.0
60.368864984 60.0
60.373788841 64.0
60.378712697 69.0
60.383636553 66.0
60.388560409 64.0
60.393484265 61.0
60.398408121 62.0
60.403331977 84.0
60.408255833 72.0
60.413179689 60.0
60.418103545 70.0
60.423027401 68.0
60.427951257 67.0
60.432875113 66.0
60.437798969 67.0
60.442722825 59.0
60.447646681 72.0
60.452570537 55.0
60.457494393 58.0
60.462418249 78.0
60.467342105 65.0
60.472265961 72.0
60.477189817 76.0
60.482113673 58.0
60.487037529 75.0
60.491961385 71.0
60.496885241 69.0
60.501809097 71.0
60.506732953 66.0
60.511656809 72.0
60.516580665 69.0
60.521504521 76.0
60.526428377 85.0
60.531352233 77.0
60.536276089 72.0
60.541199945 82.0
60.546123801 61.0
60.551047657 76.0
60.555971513 77.0
60.560895369 84.0
60.565819225 57.0
60.570743081 73.0
60.575666937 57.0
60.580590793 71.0
60.585514649 84.0
60.590438505 60.0
60.595362361 66.0
60.600286217 66.0
60.605210073 76.0
60.610133929 78.0
60.615057785 59.0
60.619981641 74.0
60.624905497 72.0
60.629829353 60.0
60.634753209 57.0
60.639677065 68.0
60.644600921 76.0
60.649524777 55.0
60.654448633 67.0
60.659372489 83.0
60.664296345 58.0
60.669220201 71.0
60.674144057 87.0
60.679067913 70.0
60.683991769 83.0
60.688915625 70.0
60.693839481 74.0
60.698763337 88.0
60.703687193 87.0
60.708611049 88.0
60.713534905 86.0
60.718458761 97.0
60.723382617 104.0
60.728306473 83.0
60.733230329 83.0
60.738154185 98.0
60.743078042 83.0
60.748001898 112.0
60.752925754 105.0
60.757849610 102.0
60.762773466 109.0
60.767697322 116.0
60.772621178 144.0
60.777545034 144.0
60.782468890 160.0
60.787392746 194.0
60.792316602 256.0
60.797240458 319.0
60.802164314 359.0
60.807088170 393.0
60.812012026 465.0
60.816935882 546.0
60.821859738 591.0
60.826783594 711.0
60.831707450 710.0
60.836631306 776.0
60.841555162 765.0
60.846479018 772.0
60.851402874 681.0
60.856326730 607.0
60.861250586 559.0
60.866174442 522.0
60.871098298 435.0
60.876022154 348.0
60.880946010 350.0
60.885869866 350.0
60.890793722 332.0
60.895717578 327.0
60.900641434 348.0
60.905565290 361.0
60.910489146 315.0
60.915413002 313.0
60.920336858 313.0
60.925260714 282.0
60.930184570 279.0
60.935108426 217.0
60.940032282 203.0
60.944956138 181.0
60.949879994 182.0
60.954803850 152.0
60.959727706 158.0
60.964651562 118.0
60.969575418 125.0
60.974499274 133.0
60.979423130 112.0
60.984346986 94.0
60.989270842 106.0
60.994194698 107.0
60.999118554 109.0
61.004042410 95.0
61.008966266 100.0
61.013890122 106.0
61.018813978 92.0
61.023737834 91.0
61.028661690 86.0
61.033585546 103.0
61.038509402 68.0
61.043433258 83.0
61.048357114 76.0
61.053280970 84.0
61.058204826 66.0
61.063128682 80.0
61.068052538 79.0
61.072976394 85.0
61.077900250 79.0
61.082824106 72.0
61.087747962 91.0
61.092671818 79.0
61.097595674 65.0
61.102519530 80.0
61.107443386 86.0
61.112367243 78.0
61.117291099 80.0
61.122214955 75.0
61.127138811 68.0
61.132062667 86.0
61.136986523 77.0
61.141910379 72.0
61.146834235 73.0
61.151758091 85.0
61.156681947 80.0
61.161605803 79.0
61.166529659 55.0
61.171453515 61.0
61.176377371 79.0
61.181301227 56.0
61.186225083 84.0
61.191148939 68.0
61.196072795 64.0
61.200996651 59.0
61.205920507 66.0
61.210844363 71.0
61.215768219 76.0
61.220692075 66.0
61.225615931 70.0
61.230539787 64.0
61.235463643 66.0
61.240387499 72.0
61.245311355 63.0
61.250235211 78.0
61.255159067 69.0
61.260082923 56.0
61.265006779 62.0
61.269930635 73.0
61.274854491 71.0
61.279778347 71.0
61.284702203 63.0
61.289626059 83.0
61.294549915 85.0
61.299473771 72.0
61.304397627 68.0
61.309321483 66.0
61.314245339 70.0
61.319169195 61.0
61.324093051 56.0
61.329016907 65.0
61.333940763 73.0
61.338864619 71.0
61.343788475 77.0
61.348712331 70.0
61.353636187 53.0
61.358560043 57.0
61.363483899 67.0
61.368407755 71.0
61.373331611 73.0
61.378255467 74.0
61.383179323 71.0
61.388103179 68.0
61.393027035 66.0
61.397950891 56.0
61.402874747 73.0
61.407798603 69.0
61.412722459 57.0
61.417646315 76.0
61.422570171 59.0
61.427494027 72.0
61.432417883 74.0
61.437341739 80.0
61.442265595 76.0
61.447189451 58.0
61.452113307 63.0
61.457037163 76.0
61.461961019 84.0
61.466884875 51.0
61.471808731 60.0
61.476732587 81.0
61.481656443 80.0
61.486580300 65.0
61.491504156 78.0
61.496428012 60.0
61.501351868 62.0
61.506275724 81.0
61.511199580 86.0
61.516123436 71.0
61.521047292 72.0
61.525971148 68.0
61.530895004 75.0
61.535818860 56.0
61.540742716 76.0
61.545666572 72.0
61.550590428 79.0
61.555514284 55.0
61.560438140 80.0
61.565361996 63.0
61.570285852 72.0
61.575209708 64.0
61.580133564 60.0
61.585057420 65.0
61.589981276 56.0
61.594905132 67.0
61.599828988 86.0
61.604752844 79.0
61.609676700 80.0
61.614600556 67.0
61.619524412 61.0
61.624448268 63.0
61.629372124 61.0
61.634295980 72.0
61.639219836 61.0
61.644143692 64.0
61.649067548 69.0
61.653991404 73.0
61.658915260 62.0
61.663839116 69.0
61.668762972 75.0
61.673686828 75.0
61.678610684 81.0
61.683534540 59.0
61.688458396 80.0
61.693382252 68.0
61.698306108 70.0
61.703229964 71.0
61.708153820 68.0
61.713077676 64.0
61.718001532 81.0
61.722925388 71.0
61.727849244 70.0
61.732773100 48.0
61.737696956 76.0
61.742620812 91.0
61.747544668 55.0
61.752468524 70.0
61.757392380 73.0
61.762316236 76.0
61.767240092 74.0
61.772163948 87.0
61.777087804 70.0
61.782011660 84.0
61.786935516 64.0
61.791859372 61.0
61.796783228 73.0
61.801707084 81.0
61.806630940 79.0
61.811554796 76.0
61.816478652 87.0
61.821402508 83.0
61.826326364 74.0
61.831250220 79.0
61.836174076 52.0
61.841097932 87.0
61.846021788 73.0
61.850945644 63.0
61.855869501 84.0
61.860793357 72.0
61.865717213 71.0
61.870641069 59.0
61.875564925 66.0
61.880488781 62.0
61.885412637 66.0
61.890336493 69.0
61.895260349 79.0
61.900184205 73.0
61.905108061 73.0
61.910031917 75.0
61.914955773 64.0
61.919879629 63.0
61.924803485 70.0
61.929727341 78.0
61.934651197 68.0
61.939575053 74.0
61.944498909 56.0
61.949422765 55.0
61.954346621 66.0
61.959270477 58.0
61.964194333 65.0
61.969118189 69.0
61.974042045 75.0
61.978965901 68.0
61.983889757 77.0
61.988813613 72.0
61.993737469 55.0
61.998661325 76.0
62.003585181 67.0
62.008509037 57.0
62.013432893 53.0
62.018356749 58.0
62.023280605 61.0
62.028204461 75.0
62.033128317 54.0
62.038052173 71.0
62.042976029 66.0
62.047899885 73.0
62.052823741 63.0
62.057747597 66.0
62.062671453 66.0
62.067595309 70.0
62.072519165 74.0
62.077443021 74.0
62.082366877 62.0
62.087290733 76.0
62.092214589 81.0
62.097138445 68.0
62.102062301 57.0
62.106986157 78.0
62.111910013 66.0
62.116833869 64.0
62.121757725 69.0
62.126681581 67.0
62.131605437 76.0
62.136529293 73.0
62.141453149 63.0
62.146377005 69.0
62.151300861 76.0
62.156224717 58.0
62.161148573 81.0
62.166072429 68.0
62.170996285 64.0
62.175920141 60.0
62.180843997 68.0
62.185767853 70.0
62.190691709 89.0
62.195615565 72.0
62.200539421 60.0
62.205463277 75.0
62.210387133 67.0
62.215310989 65.0
62.220234845 77.0
62.225158702 67.0
62.230082558 73.0
62.235006414 85.0
62.239930270 67.0
62.244854126 64.0
62.249777982 56.0
62.254701838 75.0
62.259625694 58.0
62.264549550 49.0
62.269473406 73.0
62.274397262 82.0
62.279321118 64.0
62.284244974 62.0
62.289168830 57.0
62.294092686 65.0
62.299016542 79.0
62.303940398 67.0
62.308864254 65.0
62.313788110 73.0
62.318711966 91.0
62.323635822 82.0
62.328559678 85.0
62.333483534 66.0
62.338407390 87.0
62.343331246 85.0
62.348255102 70.0
62.353178958 67.0
62.358102814 70.0
62.363026670 72.0
62.367950526 80.0
62.372874382 70.0
62.377798238 68.0
62.382722094 75.0
62.387645950 59.0
62.392569806 68.0
62.397493662 77.0
62.402417518 62.0
62.407341374 69.0
62.412265230 78.0
62.417189086 71.0
62.422112942 56.0
62.427036798 69.0
62.431960654 60.0
62.436884510 63.0
62.441808366 80.0
62.446732222 56.0
62.451656078 75.0
62.456579934 77.0
62.461503790 80.0
62.466427646 69.0
62.471351502 74.0
62.476275358 75.0
62.481199214 64.0
62.486123070 59.0
62.491046926 74.0
62.495970782 78.0
62.500894638 82.0
62.505818494 85.0
62.510742350 68.0
62.515666206 75.0
62.520590062 74.0
62.525513918 65.0
62.530437774 75.0
62.535361630 80.0
62.540285486 64.0
62.545209342 60.0
62.550133198 96.0
62.555057054 68.0
62.559980910 67.0
62.564904766 59.0
62.569828622 75.0
62.574752478 69.0
62.579676334 74.0
62.584600190 66.0
62.589524046 71.0
62.594447903 66.0
62.599371759 76.0
62.604295615 70.0
62.609219471 91.0
62.614143327 77.0
62.619067183 63.0
62.623991039 85.0
62.628914895 83.0
62.633838751 78.0
62.638762607 75.0
62.643686463 79.0
62.648610319 68.0
62.653534175 71.0
62.658458031 75.0
62.663381887 63.0
62.668305743 65.0
62.673229599 73.0
62.678153455 72.0
62.683077311 69.0
62.688001167 69.0
62.692925023 68.0
62.697848879 81.0
62.702772735 77.0
62.707696591 76.0
62.712620447 62.0
62.717544303 79.0
62.722468159 66.0
62.727392015 84.0
62.732315871 72.0
62.737239727 70.0
62.742163583 62.0
62.747087439 72.0
62.752011295 80.0
62.756935151 68.0
62.761859007 83.0
62.766782863 77.0
62.771706719 93.0
62.776630575 74.0
62.781554431 68.0
62.786478287 72.0
62.791402143 78.0
62.796325999 81.0
62.801249855 80.0
62.806173711 76.0
62.811097567 65.0
62.816021423 76.0
62.820945279 84.0
62.825869135 88.0
62.830792991 60.0
62.835716847 65.0
62.840640703 82.0
62.845564559 85.0
62.850488415 88.0
62.855412271 65.0
62.860336127 79.0
62.865259983 81.0
62.870183839 88.0
62.875107695 85.0
62.880031551 72.0
62.884955407 74.0
62.889879263 66.0
62.894803119 75.0
62.899726975 65.0
62.904650831 76.0
62.909574687 66.0
62.914498543 93.0
62.919422399 74.0
62.924346255 76.0
62.929270111 81.0
62.934193967 87.0
62.939117823 90.0
62.944041679 90.0
62.948965535 79.0
62.953889391 76.0
62.958813247 77.0
62.963737104 88.0
62.968660960 73.0
62.973584816 93.0
62.978508672 71.0
62.983432528 66.0
62.988356384 75.0
62.993280240 65.0
62.998204096 78.0
63.003127952 77.0
63.008051808 83.0
63.012975664 84.0
63.017899520 77.0
63.022823376 79.0
63.027747232 93.0
63.032671088 83.0
63.037594944 76.0
63.042518800 81.0
63.047442656 79.0
63.052366512 91.0
63.057290368 68.0
63.062214224 91.0
63.067138080 86.0
63.072061936 76.0
63.076985792 69.0
63.081909648 84.0
63.086833504 91.0
63.091757360 72.0
63.096681216 80.0
63.101605072 75.0
63.106528928 79.0
63.111452784 82.0
63.116376640 77.0
63.121300496 82.0
63.126224352 72.0
63.131148208 68.0
63.136072064 86.0
63.140995920 74.0
63.145919776 77.0
63.150843632 84.0
63.155767488 92.0
63.160691344 75.0
63.165615200 72.0
63.170539056 76.0
63.175462912 82.0
63.180386768 77.0
63.185310624 82.0
63.190234480 93.0
63.195158336 79.0
63.200082192 85.0
63.205006048 85.0
63.209929904 79.0
63.214853760 76.0
63.219777616 78.0
63.224701472 76.0
63.229625328 75.0
63.234549184 76.0
63.239473040 80.0
63.244396896 76.0
63.249320752 86.0
63.254244608 114.0
63.259168464 74.0
63.264092320 94.0
63.269016176 77.0
63.273940032 100.0
63.278863888 75.0
63.283787744 90.0
63.288711600 87.0
63.293635456 98.0
63.298559312 87.0
63.303483168 83.0
63.308407024 68.0
63.313330880 80.0
63.318254736 90.0
63.323178592 90.0
63.328102448 96.0
63.333026304 96.0
63.337950161 89.0
63.342874017 93.0
63.347797873 76.0
63.352721729 81.0
63.357645585 93.0
63.362569441 79.0
63.367493297 92.0
63.372417153 98.0
63.377341009 89.0
63.382264865 91.0
63.387188721 77.0
63.392112577 73.0
63.397036433 82.0
63.401960289 92.0
63.406884145 77.0
63.411808001 88.0
63.416731857 104.0
63.421655713 90.0
63.426579569 110.0
63.431503425 82.0
63.436427281 88.0
63.441351137 69.0
63.446274993 95.0
63.451198849 98.0
63.456122705 87.0
63.461046561 87.0
63.465970417 105.0
63.470894273 110.0
63.475818129 93.0
63.480741985 101.0
63.485665841 98.0
63.490589697 88.0
63.495513553 94.0
63.500437409 99.0
63.505361265 104.0
63.510285121 106.0
63.515208977 79.0
63.520132833 85.0
63.525056689 97.0
63.529980545 95.0
63.534904401 96.0
63.539828257 81.0
63.544752113 88.0
63.549675969 93.0
63.554599825 112.0
63.559523681 96.0
63.564447537 91.0
63.569371393 92.0
63.574295249 85.0
63.579219105 76.0
63.584142961 103.0
63.589066817 106.0
63.593990673 120.0
63.598914529 104.0
63.603838385 103.0
63.608762241 110.0
63.613686097 95.0
63.618609953 97.0
63.623533809 100.0
63.628457665 90.0
63.633381521 103.0
63.638305377 103.0
63.643229233 89.0
63.648153089 87.0
63.653076945 100.0
63.658000801 97.0
63.662924657 91.0
63.667848513 77.0
63.672772369 106.0
63.677696225 95.0
63.682620081 89.0
63.687543937 92.0
63.692467793 113.0
63.697391649 128.0
63.702315505 98.0
63.707239362 105.0
63.712163218 91.0
63.717087074 114.0
63.722010930 123.0
63.726934786 98.0
63.731858642 107.0
63.736782498 103.0
63.741706354 103.0
63.746630210 111.0
63.751554066 98.0
63.756477922 102.0
63.761401778 108.0
63.766325634 106.0
63.771249490 133.0
63.776173346 121.0
63.781097202 100.0
63.786021058 122.0
63.790944914 108.0
63.795868770 124.0
63.800792626 119.0
63.805716482 119.0
63.810640338 103.0
63.815564194 114.0
63.820488050 106.0
63.825411906 118.0
63.830335762 113.0
63.835259618 127.0
63.840183474 111.0
63.845107330 98.0
63.850031186 119.0
63.854955042 111.0
63.859878898 111.0
63.864802754 106.0
63.869726610 123.0
63.874650466 124.0
63.879574322 125.0
63.884498178 130.0
63.889422034 117.0
63.894345890 135.0
63.899269746 135.0
63.904193602 116.0
63.909117458 136.0
63.914041314 138.0
63.918965170 112.0
63.923889026 132.0
63.928812882 134.0
63.933736738 141.0
63.938660594 118.0
63.943584450 159.0
63.948508306 133.0
63.953432162 127.0
63.958356018 163.0
63.963279874 136.0
63.968203730 150.0
63.973127586 126.0
63.978051442 127.0
63.982975298 150.0
63.987899154 143.0
63.992823010 122.0
63.997746866 145.0
64.002670722 154.0
64.007594578 144.0
64.012518434 142.0
64.017442290 142.0
64.022366146 161.0
64.027290002 143.0
64.032213858 135.0
64.037137714 153.0
64.042061570 158.0
64.046985426 162.0
64.051909282 148.0
64.056833138 142.0
64.061756994 145.0
64.066680850 131.0
64.071604706 164.0
64.076528563 155.0
64.081452419 141.0
64.086376275 153.0
64.091300131 167.0
64.096223987 155.0
64.101147843 166.0
64.106071699 180.0
64.110995555 171.0
64.115919411 176.0
64.120843267 174.0
64.125767123 179.0
64.130690979 176.0
64.135614835 194.0
64.140538691 159.0
64.145462547 197.0
64.150386403 181.0
64.155310259 167.0
64.160234115 199.0
64.165157971 183.0
64.170081827 196.0
64.175005683 212.0
64.179929539 192.0
64.184853395 175.0
64.189777251 185.0
64.194701107 200.0
64.199624963 197.0
64.204548819 240.0
64.209472675 215.0
64.214396531 209.0
64.219320387 185.0
64.224244243 219.0
64.229168099 220.0
64.234091955 206.0
64.239015811 256.0
64.243939667 260.0
64.248863523 281.0
64.253787379 219.0
64.258711235 243.0
64.263635091 259.0
64.268558947 232.0
64.273482803 261.0
64.278406659 268.0
64.283330515 294.0
64.288254371 279.0
64.293178227 285.0
64.298102083 294.0
64.303025939 274.0
64.307949795 312.0
64.312873651 309.0
64.317797507 293.0
64.322721363 355.0
64.327645219 305.0
64.332569075 326.0
64.337492931 361.0
64.342416787 311.0
64.347340643 342.0
64.352264499 342.0
64.357188355 352.0
64.362112211 410.0
64.367036067 360.0
64.371959923 362.0
64.376883779 387.0
64.381807635 421.0
64.386731491 394.0
64.391655347 407.0
64.396579203 452.0
64.401503059 413.0
64.406426915 453.0
64.411350771 464.0
64.416274627 443.0
64.421198483 478.0
64.426122339 454.0
64.431046195 459.0
64.435970051 530.0
64.440893907 570.0
64.445817764 541.0
64.450741620 589.0
64.455665476 574.0
64.460589332 590.0
64.465513188 560.0
64.470437044 582.0
64.475360900 656.0
64.480284756 638.0
64.485208612 686.0
64.490132468 704.0
64.495056324 731.0
64.499980180 706.0
64.504904036 719.0
64.509827892 790.0
64.514751748 827.0
64.519675604 821.0
64.524599460 814.0
64.529523316 869.0
64.534447172 915.0
64.539371028 928.0
64.544294884 909.0
64.549218740 1024.0
64.554142596 1020.0
64.559066452 1047.0
64.563990308 1104.0
64.568914164 1097.0
64.573838020 1194.0
64.578761876 1198.0
64.583685732 1260.0
64.588609588 1245.0
64.593533444 1257.0
64.598457300 1350.0
64.603381156 1464.0
64.608305012 1522.0
64.613228868 1489.0
64.618152724 1586.0
64.623076580 1676.0
64.628000436 1801.0
64.632924292 1814.0
64.637848148 1949.0
64.642772004 2031.0
64.647695860 2100.0
64.652619716 2259.0
64.657543572 2315.0
64.662467428 2459.0
64.667391284 2540.0
64.672315140 2600.0
64.677238996 2835.0
64.682162852 3023.0
64.687086708 3126.0
64.692010564 3159.0
64.696934420 3255.0
64.701858276 3421.0
64.706782132 3624.0
64.711705988 3814.0
64.716629844 3978.0
64.721553700 4059.0
64.726477556 4224.0
64.731401412 4611.0
64.736325268 4700.0
64.741249124 4738.0
64.746172980 4975.0
64.751096836 5040.0
64.756020692 5144.0
64.760944548 5419.0
64.765868404 5443.0
64.770792260 5647.0
64.775716116 5719.0
64.780639972 5689.0
64.785563828 5670.0
64.790487684 5888.0
64.795411540 5978.0
64.800335396 5966.0
64.805259252 5665.0
64.810183108 5673.0
64.815106965 5546.0
64.820030821 5571.0
64.824954677 5518.0
64.829878533 5353.0
64.834802389 5258.0
64.839726245 5190.0
64.844650101 4951.0
64.849573957 4918.0
64.854497813 4672.0
64.859421669 4615.0
64.864345525 4545.0
64.869269381 4472.0
64.874193237 4386.0
64.879117093 4282.0
64.884040949 4289.0
64.888964805 4085.0
64.893888661 4208.0
64.898812517 3967.0
64.903736373 4094.0
64.908660229 4001.0
64.913584085 3909.0
64.918507941 3858.0
64.923431797 3867.0
64.928355653 3877.0
64.933279509 3850.0
64.938203365 3809.0
64.943127221 3914.0
64.948051077 3819.0
64.952974933 3652.0
64.957898789 3646.0
64.962822645 3615.0
64.967746501 3522.0
64.972670357 3542.0
64.977594213 3440.0
64.982518069 3428.0
64.987441925 3263.0
64.992365781 3187.0
64.997289637 3073.0
65.002213493 3072.0
65.007137349 3018.0
65.012061205 2862.0
65.016985061 2814.0
65.021908917 2651.0
65.026832773 2507.0
65.031756629 2363.0
65.036680485 2313.0
65.041604341 2235.0
65.046528197 2132.0
65.051452053 2003.0
65.056375909 1907.0
65.061299765 1866.0
65.066223621 1744.0
65.071147477 1711.0
65.076071333 1494.0
65.080995189 1455.0
65.085919045 1401.0
65.090842901 1375.0
65.095766757 1293.0
65.100690613 1251.0
65.105614469 1207.0
65.110538325 1146.0
65.115462181 1089.0
65.120386037 1000.0
65.125309893 959.0
65.130233749 918.0
65.135157605 936.0
65.140081461 842.0
65.145005317 819.0
65.149929173 751.0
65.154853029 787.0
65.159776885 688.0
65.164700741 693.0
65.169624597 693.0
65.174548453 625.0
65.179472309 589.0
65.184396165 580.0
65.189320022 584.0
65.194243878 543.0
65.199167734 541.0
65.204091590 459.0
65.209015446 500.0
65.213939302 503.0
65.218863158 516.0
65.223787014 491.0
65.228710870 482.0
65.233634726 440.0
65.238558582 416.0
65.243482438 430.0
65.248406294 406.0
65.253330150 390.0
65.258254006 388.0
65.263177862 383.0
65.268101718 370.0
65.273025574 385.0
65.277949430 330.0
65.282873286 318.0
65.287797142 345.0
65.292720998 358.0
65.297644854 316.0
65.302568710 316.0
65.307492566 346.0
65.312416422 304.0
65.317340278 324.0
65.322264134 347.0
65.327187990 279.0
65.332111846 294.0
65.337035702 321.0
65.341959558 314.0
65.346883414 248.0
65.351807270 287.0
65.356731126 280.0
65.361654982 274.0
65.366578838 294.0
65.371502694 261.0
65.376426550 248.0
65.381350406 258.0
65.386274262 238.0
65.391198118 263.0
65.396121974 240.0
65.401045830 225.0
65.405969686 238.0
65.410893542 207.0
65.415817398 212.0
65.420741254 258.0
65.425665110 212.0
65.430588966 229.0
65.435512822 236.0
65.440436678 214.0
65.445360534 217.0
65.450284390 205.0
65.455208246 210.0
65.460132102 196.0
65.465055958 193.0
65.469979814 212.0
65.474903670 209.0
65.479827526 195.0
65.484751382 200.0
65.489675238 186.0
65.494599094 199.0
65.499522950 213.0
65.504446806 195.0
65.509370662 203.0
65.514294518 170.0
65.519218374 197.0
65.524142230 201.0
65.529066086 181.0
65.533989942 183.0
65.538913798 180.0
65.543837654 184.0
65.548761510 193.0
65.553685366 164.0
65.558609223 159.0
65.563533079 170.0
65.568456935 138.0
65.573380791 173.0
65.578304647 171.0
65.583228503 164.0
65.588152359 162.0
65.593076215 141.0
65.598000071 183.0
65.602923927 149.0
65.607847783 149.0
65.612771639 134.0
65.617695495 157.0
65.622619351 148.0
65.627543207 182.0
65.632467063 138.0
65.637390919 137.0
65.642314775 139.0
65.647238631 150.0
65.652162487 168.0
65.657086343 150.0
65.662010199 131.0
65.666934055 139.0
65.671857911 137.0
65.676781767 166.0
65.681705623 159.0
65.686629479 158.0
65.691553335 147.0
65.696477191 168.0
65.701401047 133.0
65.706324903 135.0
65.711248759 154.0
65.716172615 142.0
65.721096471 132.0
65.726020327 149.0
65.730944183 116.0
65.735868039 139.0
65.740791895 118.0
65.745715751 135.0
65.750639607 135.0
65.755563463 126.0
65.760487319 148.0
65.765411175 152.0
65.770335031 153.0
65.775258887 138.0
65.780182743 103.0
65.785106599 108.0
65.790030455 137.0
65.794954311 127.0
65.799878167 128.0
65.804802023 116.0
65.809725879 127.0
65.814649735 120.0
65.819573591 138.0
65.824497447 127.0
65.829421303 153.0
65.834345159 152.0
65.839269015 142.0
65.844192871 122.0
65.849116727 126.0
65.854040583 149.0
65.858964439 110.0
65.863888295 116.0
65.868812151 122.0
65.873736007 135.0
65.878659863 144.0
65.883583719 104.0
65.888507575 117.0
65.893431431 140.0
65.898355287 134.0
65.903279143 118.0
65.908202999 116.0
65.913126855 125.0
65.918050711 147.0
65.922974567 130.0
65.927898424 124.0
65.932822280 102.0
65.937746136 126.0
65.942669992 123.0
65.947593848 122.0
65.952517704 121.0
65.957441560 138.0
65.962365416 138.0
65.967289272 114.0
65.972213128 140.0
65.977136984 131.0
65.982060840 124.0
65.986984696 116.0
65.991908552 130.0
65.996832408 120.0
66.001756264 117.0
66.006680120 147.0
66.011603976 127.0
66.016527832 127.0
66.021451688 129.0
66.026375544 130.0
66.031299400 136.0
66.036223256 126.0
66.041147112 122.0
66.046070968 130.0
66.050994824 130.0
66.055918680 112.0
66.060842536 157.0
66.065766392 138.0
66.070690248 90.0
66.075614104 124.0
66.080537960 133.0
66.085461816 110.0
66.090385672 126.0
66.095309528 118.0
66.100233384 127.0
66.105157240 124.0
66.110081096 120.0
66.115004952 141.0
66.119928808 133.0
66.124852664 106.0
66.129776520 126.0
66.134700376 143.0
66.139624232 114.0
66.144548088 111.0
66.149471944 137.0
66.154395800 118.0
66.159319656 126.0
66.164243512 110.0
66.169167368 133.0
66.174091224 133.0
66.179015080 127.0
66.183938936 111.0
66.188862792 144.0
66.193786648 109.0
66.198710504 120.0
66.203634360 101.0
66.208558216 127.0
66.213482072 137.0
66.218405928 127.0
66.223329784 115.0
66.228253640 117.0
66.233177496 134.0
66.238101352 144.0
66.243025208 120.0
66.247949064 146.0
66.252872920 142.0
66.257796776 141.0
66.262720632 139.0
66.267644488 124.0
66.272568344 133.0
66.277492200 121.0
66.282416056 130.0
66.287339912 154.0
66.292263768 130.0
66.297187625 125.0
66.302111481 129.0
66.307035337 128.0
66.311959193 119.0
66.316883049 138.0
66.321806905 119.0
66.326730761 139.0
66.331654617 124.0
66.336578473 145.0
66.341502329 128.0
66.346426185 153.0
66.351350041 112.0
66.356273897 127.0
66.361197753 134.0
66.366121609 130.0
66.371045465 130.0
66.375969321 127.0
66.380893177 137.0
66.385817033 140.0
66.390740889 138.0
66.395664745 134.0
66.400588601 123.0
66.405512457 131.0
66.410436313 120.0
66.415360169 129.0
66.420284025 146.0
66.425207881 140.0
66.430131737 135.0
66.435055593 142.0
66.439979449 142.0
66.444903305 105.0
66.449827161 156.0
66.454751017 132.0
66.459674873 134.0
66.464598729 138.0
66.469522585 150.0
66.474446441 153.0
66.479370297 137.0
66.484294153 136.0
66.489218009 139.0
66.494141865 149.0
66.499065721 161.0
66.503989577 143.0
66.508913433 133.0
66.513837289 127.0
66.518761145 133.0
66.523685001 125.0
66.528608857 149.0
66.533532713 144.0
66.538456569 141.0
66.543380425 158.0
66.548304281 154.0
66.553228137 145.0
66.558151993 150.0
66.563075849 128.0
66.567999705 141.0
66.572923561 150.0
66.577847417 143.0
66.582771273 142.0
66.587695129 138.0
66.592618985 138.0
66.597542841 168.0
66.602466697 140.0
66.607390553 176.0
66.612314409 134.0
66.617238265 144.0
66.622162121 151.0
66.627085977 161.0
66.632009833 153.0
66.636933689 162.0
66.641857545 168.0
66.646781401 133.0
66.651705257 151.0
66.656629113 150.0
66.661552969 149.0
66.666476826 178.0
66.671400682 141.0
66.676324538 168.0
66.681248394 144.0
66.686172250 162.0
66.691096106 149.0
66.696019962 151.0
66.700943818 141.0
66.705867674 151.0
66.710791530 143.0
66.715715386 168.0
66.720639242 159.0
66.725563098 170.0
66.730486954 155.0
66.735410810 159.0
66.740334666 172.0
66.745258522 202.0
66.750182378 172.0
66.755106234 166.0
66.760030090 160.0
66.764953946 182.0
66.769877802 148.0
66.774801658 169.0
66.779725514 179.0
66.784649370 152.0
66.789573226 171.0
66.794497082 168.0
66.799420938 194.0
66.804344794 179.0
66.809268650 175.0
66.814192506 171.0
66.819116362 158.0
66.824040218 185.0
66.828964074 177.0
66.833887930 190.0
66.838811786 189.0
66.843735642 154.0
66.848659498 184.0
66.853583354 166.0
66.858507210 175.0
66.863431066 184.0
66.868354922 148.0
66.873278778 194.0
66.878202634 173.0
66.883126490 199.0
66.888050346 180.0
66.892974202 178.0
66.897898058 171.0
66.902821914 181.0
66.907745770 187.0
66.912669626 166.0
66.917593482 193.0
66.922517338 177.0
66.927441194 195.0
66.932365050 202.0
66.937288906 186.0
66.942212762 185.0
66.947136618 191.0
66.952060474 178.0
66.956984330 206.0
66.961908186 166.0
66.966832042 185.0
66.971755898 193.0
66.976679754 195.0
66.981603610 183.0
66.986527466 215.0
66.991451322 176.0
66.996375178 210.0
67.001299034 209.0
67.006222890 210.0
67.011146746 189.0
67.016070602 198.0
67.020994458 196.0
67.025918314 204.0
67.030842170 203.0
67.035766026 185.0
67.040689883 264.0
67.045613739 260.0
67.050537595 267.0
67.055461451 190.0
67.060385307 204.0
67.065309163 191.0
67.070233019 255.0
67.075156875 209.0
67.080080731 257.0
67.085004587 214.0
67.089928443 219.0
67.094852299 214.0
67.099776155 259.0
67.104700011 256.0
67.109623867 255.0
67.114547723 200.0
67.119471579 203.0
67.124395435 276.0
67.129319291 212.0
67.134243147 272.0
67.139167003 256.0
67.144090859 257.0
67.149014715 205.0
67.153938571 257.0
67.158862427 259.0
67.163786283 213.0
67.168710139 214.0
67.173633995 280.0
67.178557851 273.0
67.183481707 264.0
67.188405563 279.0
67.193329419 256.0
67.198253275 272.0
67.203177131 260.0
67.208100987 277.0
67.213024843 200.0
67.217948699 292.0
67.222872555 264.0
67.227796411 265.0
67.232720267 218.0
67.237644123 272.0
67.242567979 291.0
67.247491835 276.0
67.252415691 299.0
67.257339547 278.0
67.262263403 299.0
67.267187259 285.0
67.272111115 293.0
67.277034971 275.0
67.281958827 319.0
67.286882683 287.0
67.291806539 309.0
67.296730395 286.0
67.301654251 310.0
67.306578107 317.0
67.311501963 333.0
67.316425819 316.0
67.321349675 298.0
67.326273531 329.0
67.331197387 308.0
67.336121243 335.0
67.341045099 310.0
67.345968955 329.0
67.350892811 313.0
67.355816667 339.0
67.360740523 287.0
67.365664379 332.0
67.370588235 300.0
67.375512091 328.0
67.380435947 354.0
67.385359803 312.0
67.390283659 327.0
67.395207515 300.0
67.400131371 336.0
67.405055227 369.0
67.409979084 390.0
67.414902940 351.0
67.419826796 362.0
67.424750652 362.0
67.429674508 390.0
67.434598364 361.0
67.439522220 334.0
67.444446076 348.0
67.449369932 357.0
67.454293788 344.0
67.459217644 376.0
67.464141500 381.0
67.469065356 379.0
67.473989212 411.0
67.478913068 366.0
67.483836924 412.0
67.488760780 346.0
67.493684636 410.0
67.498608492 402.0
67.503532348 394.0
67.508456204 362.0
67.513380060 412.0
67.518303916 394.0
67.523227772 401.0
67.528151628 409.0
67.533075484 431.0
67.537999340 392.0
67.542923196 413.0
67.547847052 444.0
67.552770908 448.0
67.557694764 444.0
67.562618620 393.0
67.567542476 434.0
67.572466332 454.0
67.577390188 461.0
67.582314044 446.0
67.587237900 426.0
67.592161756 456.0
67.597085612 452.0
67.602009468 509.0
67.606933324 465.0
67.611857180 500.0
67.616781036 469.0
67.621704892 428.0
67.626628748 486.0
67.631552604 556.0
67.636476460 518.0
67.641400316 542.0
67.646324172 515.0
67.651248028 503.0
67.656171884 569.0
67.661095740 605.0
67.666019596 564.0
67.670943452 550.0
67.675867308 547.0
67.680791164 615.0
67.685715020 648.0
67.690638876 621.0
67.695562732 659.0
67.700486588 654.0
67.705410444 649.0
67.710334300 625.0
67.715258156 715.0
67.720182012 696.0
67.725105868 754.0
67.730029724 781.0
67.734953580 772.0
67.739877436 899.0
67.744801292 921.0
67.749725148 926.0
67.754649004 1013.0
67.759572860 1007.0
67.764496716 1079.0
67.769420572 1171.0
67.774344428 1156.0
67.779268285 1220.0
67.784192141 1362.0
67.789115997 1381.0
67.794039853 1337.0
67.798963709 1514.0
67.803887565 1605.0
67.808811421 1630.0
67.813735277 1717.0
67.818659133 1725.0
67.823582989 1709.0
67.828506845 1703.0
67.833430701 1713.0
67.838354557 1744.0
67.843278413 1697.0
67.848202269 1724.0
67.853126125 1873.0
67.858049981 1746.0
67.862973837 1835.0
67.867897693 1900.0
67.872821549 1822.0
67.877745405 1815.0
67.882669261 1715.0
67.887593117 1858.0
67.892516973 1688.0
67.897440829 1719.0
67.902364685 1617.0
67.907288541 1639.0
67.912212397 1629.0
67.917136253 1679.0
67.922060109 1742.0
67.926983965 1837.0
67.931907821 1711.0
67.936831677 1777.0
67.941755533 1791.0
67.946679389 1870.0
67.951603245 1825.0
67.956527101 2005.0
67.961450957 1919.0
67.966374813 2156.0
67.971298669 2044.0
67.976222525 2278.0
67.981146381 2275.0
67.986070237 2349.0
67.990994093 2450.0
67.995917949 2579.0
68.000841805 2752.0
68.005765661 2886.0
68.010689517 3013.0
68.015613373 3189.0
68.020537229 3435.0
68.025461085 3615.0
68.030384941 3957.0
68.035308797 4266.0
68.040232653 4298.0
68.045156509 4997.0
68.050080365 5182.0
68.055004221 5903.0
68.059928077 5976.0
68.064851933 7044.0
68.069775789 7153.0
68.074699645 8536.0
68.079623501 8890.0
68.084547357 10808.0
68.089471213 11250.0
68.094395069 14035.0
68.099318925 15009.0
68.104242781 18958.0
68.109166637 21396.0
68.114090493 27367.0
68.119014349 32449.0
68.123938205 43754.0
68.128862061 58133.0
68.133785917 79042.0
68.138709773 117116.0
68.143633629 144639.0
68.148557486 197564.0
68.153481342 211276.0
68.158405198 234682.0
68.163329054 226671.0
68.168252910 209498.0
68.173176766 187519.0
68.178100622 138824.0
68.183024478 118664.0
68.187948334 82767.0
68.192872190 69431.0
68.197796046 52200.0
68.202719902 42369.0
68.207643758 33808.0
68.212567614 26630.0
68.217491470 22743.0
68.222415326 18409.0
68.227339182 16380.0
68.232263038 13941.0
68.237186894 12279.0
68.242110750 11114.0
68.247034606 10073.0
68.251958462 9561.0
68.256882318 9017.0
68.261806174 8951.0
68.266730030 8531.0
68.271653886 8636.0
68.276577742 8850.0
68.281501598 9349.0
68.286425454 10336.0
68.291349310 11316.0
68.296273166 12676.0
68.301197022 14507.0
68.306120878 16924.0
68.311044734 20499.0
68.315968590 25638.0
68.320892446 32182.0
68.325816302 42913.0
68.330740158 55989.0
68.335664014 73069.0
68.340587870 88116.0
68.345511726 101144.0
68.350435582 108676.0
68.355359438 109253.0
68.360283294 103746.0
68.365207150 92030.0
68.370131006 77591.0
68.375054862 62868.0
68.379978718 50081.0
68.384902574 39039.0
68.389826430 31056.0
68.394750286 24149.0
68.399674142 19195.0
68.404597998 15728.0
68.409521854 13068.0
68.414445710 10594.0
68.419369566 9275.0
68.424293422 8028.0
68.429217278 6949.0
68.434141134 6114.0
68.439064990 5658.0
68.443988846 4826.0
68.448912702 4455.0
68.453836558 4036.0
68.458760414 3890.0
68.463684270 3463.0
68.468608126 3328.0
68.473531982 3178.0
68.478455838 2897.0
68.483379694 2800.0
68.488303550 2557.0
68.493227406 2538.0
68.498151262 2276.0
68.503075118 2299.0
68.507998974 2166.0
68.512922830 2100.0
68.517846687 2031.0
68.522770543 1913.0
68.527694399 1876.0
68.532618255 1817.0
68.537542111 1759.0
68.542465967 1674.0
68.547389823 1570.0
68.552313679 1553.0
68.557237535 1425.0
68.562161391 1482.0
68.567085247 1394.0
68.572009103 1374.0
68.576932959 1402.0
68.581856815 1320.0
68.586780671 1291.0
68.591704527 1212.0
68.596628383 1276.0
68.601552239 1236.0
68.606476095 1104.0
68.611399951 1101.0
68.616323807 1072.0
68.621247663 1056.0
68.626171519 1113.0
68.631095375 990.0
68.636019231 969.0
68.640943087 974.0
68.645866943 1000.0
68.650790799 939.0
68.655714655 896.0
68.660638511 918.0
68.665562367 906.0
68.670486223 875.0
68.675410079 869.0
68.680333935 831.0
68.685257791 810.0
68.690181647 820.0
68.695105503 780.0
68.700029359 819.0
68.704953215 757.0
68.709877071 707.0
68.714800927 720.0
68.719724783 728.0
68.724648639 722.0
68.729572495 670.0
68.734496351 619.0
68.739420207 703.0
68.744344063 634.0
68.749267919 626.0
68.754191775 613.0
68.759115631 620.0
68.764039487 635.0
68.768963343 607.0
68.773887199 553.0
68.778811055 594.0
68.783734911 611.0
68.788658767 590.0
68.793582623 567.0
68.798506479 529.0
68.803430335 536.0
68.808354191 539.0
68.813278047 541.0
68.818201903 489.0
68.823125759 506.0
68.828049615 515.0
68.832973471 477.0
68.837897327 529.0
68.842821183 524.0
68.847745039 465.0
68.852668895 427.0
68.857592751 450.0
68.862516607 453.0
68.867440463 433.0
68.872364319 448.0
68.877288175 476.0
68.882212031 395.0
68.887135887 423.0
68.892059744 408.0
68.896983600 412.0
68.901907456 418.0
68.906831312 451.0
68.911755168 452.0
68.916679024 424.0
68.921602880 381.0
68.926526736 399.0
68.931450592 439.0
68.936374448 385.0
68.941298304 408.0
68.946222160 421.0
68.951146016 416.0
68.956069872 387.0
68.960993728 354.0
68.965917584 366.0
68.970841440 361.0
68.975765296 374.0
68.980689152 367.0
68.985613008 358.0
68.990536864 375.0
68.995460720 368.0
69.000384576 344.0
69.005308432 306.0
69.010232288 322.0
69.015156144 298.0
69.020080000 339.0
69.025003856 336.0
69.029927712 328.0
69.034851568 342.0
69.039775424 356.0
69.044699280 309.0
69.049623136 305.0
69.054546992 333.0
69.059470848 300.0
69.064394704 310.0
69.069318560 335.0
69.074242416 293.0
69.079166272 273.0
69.084090128 278.0
69.089013984 333.0
69.093937840 284.0
69.098861696 278.0
69.103785552 331.0
69.108709408 255.0
69.113633264 255.0
69.118557120 301.0
69.123480976 303.0
69.128404832 282.0
69.133328688 290.0
69.138252544 294.0
69.143176400 266.0
69.148100256 266.0
69.153024112 277.0
69.157947968 289.0
69.162871824 267.0
69.167795680 257.0
69.172719536 255.0
69.177643392 267.0
69.182567248 277.0
69.187491104 271.0
69.192414960 224.0
69.197338816 218.0
69.202262672 202.0
69.207186528 270.0
69.212110384 273.0
69.217034240 193.0
69.221958096 220.0
69.226881952 191.0
69.231805808 206.0
69.236729664 259.0
69.241653520 215.0
69.246577376 217.0
69.251501232 210.0
69.256425088 180.0
69.261348945 188.0
69.266272801 220.0
69.271196657 224.0
69.276120513 215.0
69.281044369 204.0
69.285968225 194.0
69.290892081 185.0
69.295815937 186.0
69.300739793 178.0
69.305663649 207.0
69.310587505 199.0
69.315511361 190.0
69.320435217 181.0
69.325359073 204.0
69.330282929 182.0
69.335206785 180.0
69.340130641 155.0
69.345054497 170.0
69.349978353 169.0
69.354902209 169.0
69.359826065 187.0
69.364749921 176.0
69.369673777 163.0
69.374597633 157.0
69.379521489 166.0
69.384445345 190.0
69.389369201 175.0
69.394293057 167.0
69.399216913 169.0
69.404140769 160.0
69.409064625 168.0
69.413988481 156.0
69.418912337 165.0
69.423836193 159.0
69.428760049 169.0
69.433683905 159.0
69.438607761 149.0
69.443531617 140.0
69.448455473 152.0
69.453379329 140.0
69.458303185 180.0
69.463227041 157.0
69.468150897 157.0
69.473074753 163.0
69.477998609 153.0
69.482922465 142.0
69.487846321 163.0
69.492770177 143.0
69.497694033 113.0
69.502617889 160.0
69.507541745 126.0
69.512465601 149.0
69.517389457 123.0
69.522313313 138.0
69.527237169 143.0
69.532161025 152.0
69.537084881 141.0
69.542008737 141.0
69.546932593 153.0
69.551856449 150.0
69.556780305 146.0
69.561704161 130.0
69.566628017 140.0
69.571551873 122.0
69.576475729 126.0
69.581399585 145.0
69.586323441 115.0
69.591247297 127.0
69.596171153 132.0
69.601095009 137.0
69.606018865 125.0
69.610942721 136.0
69.615866577 136.0
69.620790433 146.0
69.625714289 120.0
69.630638146 134.0
69.635562002 136.0
69.640485858 142.0
69.645409714 111.0
69.650333570 138.0
69.655257426 111.0
69.660181282 121.0
69.665105138 128.0
69.670028994 132.0
69.674952850 126.0
69.679876706 120.0
69.684800562 123.0
69.689724418 142.0
69.694648274 127.0
69.699572130 129.0
69.704495986 123.0
69.709419842 108.0
69.714343698 125.0
69.719267554 136.0
69.724191410 124.0
69.729115266 111.0
69.734039122 107.0
69.738962978 98.0
69.743886834 136.0
69.748810690 117.0
69.753734546 102.0
69.758658402 103.0
69.763582258 113.0
69.768506114 122.0
69.773429970 113.0
69.778353826 118.0
69.783277682 99.0
69.788201538 114.0
69.793125394 135.0
69.798049250 105.0
69.802973106 127.0
69.807896962 123.0
69.812820818 119.0
69.817744674 109.0
69.822668530 107.0
69.827592386 101.0
69.832516242 88.0
69.837440098 97.0
69.842363954 94.0
69.847287810 115.0
69.852211666 98.0
69.857135522 101.0
69.862059378 115.0
69.866983234 91.0
69.871907090 113.0
69.876830946 101.0
69.881754802 96.0
69.886678658 101.0
69.891602514 93.0
69.896526370 85.0
69.901450226 107.0
69.906374082 89.0
69.911297938 104.0
69.916221794 109.0
69.921145650 95.0
69.926069506 130.0
69.930993362 99.0
69.935917218 116.0
69.940841074 107.0
69.945764930 114.0
69.950688786 100.0
69.955612642 105.0
69.960536498 101.0
69.965460354 87.0
69.970384210 92.0
69.975308066 92.0
69.980231922 117.0
69.985155778 98.0
69.990079634 101.0
69.995003490 123.0
69.999927347 98.0
70.004851203 100.0
70.009775059 78.0
70.014698915 108.0
70.019622771 97.0
70.024546627 120.0
70.029470483 78.0
70.034394339 96.0
70.039318195 111.0
70.044242051 104.0
70.049165907 78.0
70.054089763 100.0
70.059013619 107.0
70.063937475 101.0
70.068861331 98.0
70.073785187 109.0
70.078709043 78.0
70.083632899 93.0
70.088556755 94.0
70.093480611 92.0
70.098404467 91.0
70.103328323 83.0
70.108252179 92.0
70.113176035 95.0
70.118099891 105.0
70.123023747 104.0
70.127947603 82.0
70.132871459 91.0
70.137795315 90.0
70.142719171 90.0
70.147643027 87.0
70.152566883 90.0
70.157490739 96.0
70.162414595 85.0
70.167338451 90.0
70.172262307 84.0
70.177186163 85.0
70.182110019 91.0
70.187033875 96.0
70.191957731 88.0
70.196881587 80.0
70.201805443 75.0
70.206729299 88.0
70.211653155 100.0
70.216577011 87.0
70.221500867 108.0
70.226424723 79.0
70.231348579 92.0
70.236272435 80.0
70.241196291 88.0
70.246120147 83.0
70.251044003 88.0
70.255967859 80.0
70.260891715 90.0
70.265815571 90.0
70.270739427 100.0
70.275663283 95.0
70.280587139 71.0
70.285510995 90.0
70.290434851 70.0
70.295358707 88.0
70.300282563 82.0
70.305206419 110.0
70.310130275 93.0
70.315054131 98.0
70.319977987 86.0
70.324901843 92.0
70.329825699 84.0
70.334749555 93.0
70.339673411 91.0
70.344597267 85.0
70.349521123 89.0
70.354444979 87.0
70.359368835 85.0
70.364292691 72.0
70.369216548 85.0
70.374140404 89.0
70.379064260 90.0
70.383988116 84.0
70.388911972 93.0
70.393835828 103.0
70.398759684 82.0
70.403683540 76.0
70.408607396 87.0
70.413531252 105.0
70.418455108 98.0
70.423378964 99.0
70.428302820 80.0
70.433226676 109.0
70.438150532 88.0
70.443074388 75.0
70.447998244 94.0
70.452922100 84.0
70.457845956 77.0
70.462769812 98.0
70.467693668 92.0
70.472617524 98.0
70.477541380 82.0
70.482465236 78.0
70.487389092 86.0
70.492312948 76.0
70.497236804 87.0
70.502160660 71.0
70.507084516 77.0
70.512008372 87.0
70.516932228 96.0
70.521856084 92.0
70.526779940 88.0
70.531703796 87.0
70.536627652 99.0
70.541551508 88.0
70.546475364 93.0
70.551399220 97.0
70.556323076 68.0
70.561246932 85.0
70.566170788 72.0
70.571094644 76.0
70.576018500 81.0
70.580942356 79.0
70.585866212 88.0
70.590790068 89.0
70.595713924 75.0
70.600637780 90.0
70.605561636 77.0
70.610485492 98.0
70.615409348 88.0
70.620333204 76.0
70.625257060 94.0
70.630180916 77.0
70.635104772 79.0
70.640028628 68.0
70.644952484 77.0
70.649876340 77.0
70.654800196 91.0
70.659724052 66.0
70.664647908 73.0
70.669571764 90.0
70.674495620 86.0
70.679419476 97.0
70.684343332 79.0
70.689267188 98.0
70.694191044 78.0
70.699114900 83.0
70.704038756 73.0
70.708962612 79.0
70.713886468 53.0
70.718810324 86.0
70.723734180 90.0
70.728658036 69.0
70.733581892 77.0
70.738505748 81.0
70.743429605 65.0
70.748353461 67.0
70.753277317 73.0
70.758201173 75.0
70.763125029 97.0
70.768048885 83.0
70.772972741 66.0
70.777896597 73.0
70.782820453 90.0
70.787744309 83.0
70.792668165 96.0
70.797592021 77.0
70.802515877 94.0
70.807439733 68.0
70.812363589 92.0
70.817287445 70.0
70.822211301 73.0
70.827135157 77.0
70.832059013 67.0
70.836982869 79.0
70.841906725 85.0
70.846830581 91.0
70.851754437 67.0
70.856678293 76.0
70.861602149 79.0
70.866526005 86.0
70.871449861 83.0
70.876373717 71.0
70.881297573 67.0
70.886221429 82.0
70.891145285 85.0
70.896069141 103.0
70.900992997 87.0
70.905916853 84.0
70.910840709 81.0
70.915764565 83.0
70.920688421 83.0
70.925612277 75.0
70.930536133 85.0
70.935459989 80.0
70.940383845 92.0
70.945307701 80.0
70.950231557 88.0
70.955155413 82.0
70.960079269 90.0
70.965003125 75.0
70.969926981 66.0
70.974850837 78.0
70.979774693 71.0
70.984698549 66.0
70.989622405 67.0
70.994546261 87.0
70.999470117 66.0
71.004393973 79.0
71.009317829 62.0
71.014241685 67.0
71.019165541 91.0
71.024089397 89.0
71.029013253 70.0
71.033937109 71.0
71.038860965 73.0
71.043784821 89.0
71.048708677 79.0
71.053632533 86.0
71.058556389 58.0
71.063480245 49.0
71.068404101 80.0
71.073327957 83.0
71.078251813 63.0
71.083175669 54.0
71.088099525 73.0
71.093023381 72.0
71.097947237 80.0
71.102871093 71.0
71.107794949 67.0
71.112718806 74.0
71.117642662 84.0
71.122566518 84.0
71.127490374 80.0
71.132414230 80.0
71.137338086 77.0
71.142261942 72.0
71.147185798 83.0
71.152109654 69.0
71.157033510 76.0
71.161957366 72.0
71.166881222 78.0
71.171805078 74.0
71.176728934 79.0
71.181652790 76.0
71.186576646 80.0
71.191500502 65.0
71.196424358 64.0
71.201348214 71.0
71.206272070 73.0
71.211195926 65.0
71.216119782 74.0
71.221043638 87.0
71.225967494 80.0
71.230891350 82.0
71.235815206 68.0
71.240739062 85.0
71.245662918 77.0
71.250586774 89.0
71.255510630 83.0
71.260434486 86.0
71.265358342 78.0
71.270282198 89.0
71.275206054 64.0
71.280129910 78.0
71.285053766 74.0
71.289977622 71.0
71.294901478 75.0
71.299825334 71.0
71.304749190 85.0
71.309673046 81.0
71.314596902 70.0
71.319520758 88.0
71.324444614 83.0
71.329368470 76.0
71.334292326 83.0
71.339216182 83.0
71.344140038 65.0
71.349063894 79.0
71.353987750 86.0
71.358911606 98.0
71.363835462 84.0
71.368759318 74.0
71.373683174 83.0
71.378607030 68.0
71.383530886 61.0
71.388454742 77.0
71.393378598 82.0
71.398302454 68.0
71.403226310 72.0
71.408150166 65.0
71.413074022 69.0
71.417997878 72.0
71.422921734 81.0
71.427845590 75.0
71.432769446 70.0
71.437693302 70.0
71.442617158 79.0
71.447541014 57.0
71.452464870 73.0
71.457388726 68.0
71.462312582 74.0
71.467236438 85.0
71.472160294 71.0
71.477084150 68.0
71.482008007 84.0
71.486931863 80.0
71.491855719 62.0
71.496779575 87.0
71.501703431 79.0
71.506627287 68.0
71.511551143 77.0
71.516474999 72.0
71.521398855 67.0
71.526322711 70.0
71.531246567 75.0
71.536170423 79.0
71.541094279 70.0
71.546018135 79.0
71.550941991 66.0
71.555865847 57.0
71.560789703 89.0
71.565713559 73.0
71.570637415 81.0
71.575561271 69.0
71.580485127 69.0
71.585408983 61.0
71.590332839 75.0
71.595256695 75.0
71.600180551 74.0
71.605104407 84.0
71.610028263 60.0
71.614952119 74.0
71.619875975 68.0
71.624799831 66.0
71.629723687 67.0
71.634647543 62.0
71.639571399 68.0
71.644495255 78.0
71.649419111 71.0
71.654342967 86.0
71.659266823 74.0
71.664190679 81.0
71.669114535 83.0
71.674038391 66.0
71.678962247 72.0
71.683886103 65.0
71.688809959 66.0
71.693733815 77.0
71.698657671 61.0
71.703581527 80.0
71.708505383 74.0
71.713429239 73.0
71.718353095 70.0
71.723276951 67.0
71.728200807 72.0
71.733124663 76.0
71.738048519 79.0
71.742972375 78.0
71.747896231 70.0
71.752820087 55.0
71.757743943 93.0
71.762667799 81.0
71.767591655 53.0
71.772515511 53.0
71.777439367 90.0
71.782363223 75.0
71.787287079 56.0
71.792210935 68.0
71.797134791 70.0
71.802058647 68.0
71.806982503 65.0
71.811906359 71.0
71.816830215 88.0
71.821754071 54.0
71.826677927 88.0
71.831601783 59.0
71.836525639 54.0
71.841449495 75.0
71.846373351 78.0
71.851297208 71.0
71.856221064 62.0
71.861144920 64.0
71.866068776 83.0
71.870992632 62.0
71.875916488 68.0
71.880840344 63.0
71.885764200 80.0
71.890688056 71.0
71.895611912 69.0
71.900535768 71.0
71.905459624 63.0
71.910383480 65.0
71.915307336 76.0
71.920231192 74.0
71.925155048 77.0
71.930078904 74.0
71.935002760 73.0
71.939926616 91.0
71.944850472 68.0
71.949774328 74.0
71.954698184 59.0
71.959622040 58.0
71.964545896 67.0
71.969469752 66.0
71.974393608 65.0
71.979317464 72.0
71.984241320 59.0
71.989165176 76.0
71.994089032 66.0
71.999012888 63.0
72.003936744 57.0
72.008860600 81.0
72.013784456 64.0
72.018708312 72.0
72.023632168 65.0
72.028556024 69.0
72.033479880 79.0
72.038403736 82.0
72.043327592 64.0
72.048251448 61.0
72.053175304 63.0
72.058099160 73.0
72.063023016 58.0
72.067946872 72.0
72.072870728 85.0
72.077794584 61.0
72.082718440 70.0
72.087642296 78.0
72.092566152 62.0
72.097490008 71.0
72.102413864 67.0
72.107337720 61.0
72.112261576 63.0
72.117185432 68.0
72.122109288 74.0
72.127033144 87.0
72.131957000 70.0
72.136880856 64.0
72.141804712 57.0
72.146728568 66.0
72.151652424 55.0
72.156576280 80.0
72.161500136 84.0
72.166423992 70.0
72.171347848 77.0
72.176271704 66.0
72.181195560 72.0
72.186119416 72.0
72.191043272 78.0
72.195967128 67.0
72.200890984 72.0
72.205814840 80.0
72.210738696 63.0
72.215662552 74.0
72.220586409 69.0
72.225510265 78.0
72.230434121 75.0
72.235357977 73.0
72.240281833 61.0
72.245205689 57.0
72.250129545 74.0
72.255053401 67.0
72.259977257 77.0
72.264901113 58.0
72.269824969 74.0
72.274748825 69.0
72.279672681 64.0
72.284596537 65.0
72.289520393 59.0
72.294444249 61.0
72.299368105 70.0
72.304291961 60.0
72.309215817 81.0
72.314139673 69.0
72.319063529 71.0
72.323987385 60.0
72.328911241 62.0
72.333835097 57.0
72.338758953 87.0
72.343682809 68.0
72.348606665 62.0
72.353530521 61.0
72.358454377 72.0
72.363378233 67.0
72.368302089 78.0
72.373225945 61.0
72.378149801 69.0
72.383073657 71.0
72.387997513 57.0
72.392921369 63.0
72.397845225 72.0
72.402769081 65.0
72.407692937 73.0
72.412616793 69.0
72.417540649 62.0
72.422464505 71.0
72.427388361 70.0
72.432312217 77.0
72.437236073 63.0
72.442159929 72.0
72.447083785 79.0
72.452007641 66.0
72.456931497 59.0
72.461855353 71.0
72.466779209 67.0
72.471703065 64.0
72.476626921 63.0
72.481550777 69.0
72.486474633 67.0
72.491398489 65.0
72.496322345 65.0
72.501246201 71.0
72.506170057 63.0
72.511093913 68.0
72.516017769 63.0
72.520941625 68.0
72.525865481 66.0
72.530789337 73.0
72.535713193 72.0
72.540637049 74.0
72.545560905 78.0
72.550484761 73.0
72.555408617 67.0
72.560332473 82.0
72.565256329 70.0
72.570180185 62.0
72.575104041 78.0
72.580027897 60.0
72.584951753 66.0
72.589875609 69.0
72.594799466 63.0
72.599723322 73.0
72.604647178 57.0
72.609571034 70.0
72.614494890 61.0
72.619418746 66.0
72.624342602 76.0
72.629266458 59.0
72.634190314 66.0
72.639114170 65.0
72.644038026 73.0
72.648961882 67.0
72.653885738 71.0
72.658809594 63.0
72.663733450 70.0
72.668657306 68.0
72.673581162 77.0
72.678505018 69.0
72.683428874 72.0
72.688352730 60.0
72.693276586 54.0
72.698200442 60.0
72.703124298 59.0
72.708048154 69.0
72.712972010 86.0
72.717895866 83.0
72.722819722 70.0
72.727743578 79.0
72.732667434 49.0
72.737591290 67.0
72.742515146 70.0
72.747439002 68.0
72.752362858 66.0
72.757286714 72.0
72.762210570 67.0
72.767134426 68.0
72.772058282 72.0
72.776982138 74.0
72.781905994 66.0
72.786829850 61.0
72.791753706 52.0
72.796677562 63.0
72.801601418 71.0
72.806525274 62.0
72.811449130 61.0
72.816372986 77.0
72.821296842 70.0
72.826220698 73.0
72.831144554 78.0
72.836068410 51.0
72.840992266 65.0
72.845916122 80.0
72.850839978 58.0
72.855763834 71.0
72.860687690 64.0
72.865611546 55.0
72.870535402 63.0
72.875459258 64.0
72.880383114 77.0
72.885306970 80.0
72.890230826 63.0
72.895154682 82.0
72.900078538 78.0
72.905002394 61.0
72.909926250 63.0
72.914850106 56.0
72.919773962 55.0
72.924697818 82.0
72.929621674 49.0
72.934545530 72.0
72.939469386 73.0
72.944393242 72.0
72.949317098 65.0
72.954240954 59.0
72.959164810 73.0
72.964088667 69.0
72.969012523 77.0
72.973936379 52.0
72.978860235 58.0
72.983784091 71.0
72.988707947 69.0
72.993631803 67.0
72.998555659 63.0
73.003479515 77.0
73.008403371 75.0
73.013327227 58.0
73.018251083 68.0
73.023174939 79.0
73.028098795 65.0
73.033022651 76.0
73.037946507 76.0
73.042870363 69.0
73.047794219 77.0
73.052718075 76.0
73.057641931 59.0
73.062565787 70.0
73.067489643 69.0
73.072413499 65.0
73.077337355 53.0
73.082261211 83.0
73.087185067 64.0
73.092108923 63.0
73.097032779 60.0
73.101956635 60.0
73.106880491 66.0
73.111804347 70.0
73.116728203 61.0
73.121652059 63.0
73.126575915 58.0
73.131499771 59.0
73.136423627 58.0
73.141347483 60.0
73.146271339 81.0
73.151195195 69.0
73.156119051 65.0
73.161042907 60.0
73.165966763 78.0
73.170890619 74.0
73.175814475 67.0
73.180738331 63.0
73.185662187 68.0
73.190586043 70.0
73.195509899 63.0
73.200433755 56.0
73.205357611 71.0
73.210281467 69.0
73.215205323 56.0
73.220129179 85.0
73.225053035 79.0
73.229976891 67.0
73.234900747 58.0
73.239824603 74.0
73.244748459 75.0
73.249672315 61.0
73.254596171 74.0
73.259520027 54.0
73.264443883 66.0
73.269367739 54.0
73.274291595 86.0
73.279215451 63.0
73.284139307 78.0
73.289063163 71.0
73.293987019 56.0
73.298910875 60.0
73.303834731 56.0
73.308758587 64.0
73.313682443 64.0
73.318606299 74.0
73.323530155 49.0
73.328454011 77.0
73.333377868 66.0
73.338301724 67.0
73.343225580 57.0
73.348149436 70.0
73.353073292 59.0
73.357997148 56.0
73.362921004 62.0
73.367844860 60.0
73.372768716 73.0
73.377692572 61.0
73.382616428 62.0
73.387540284 70.0
73.392464140 58.0
73.397387996 62.0
73.402311852 68.0
73.407235708 66.0
73.412159564 64.0
73.417083420 70.0
73.422007276 66.0
73.426931132 55.0
73.431854988 64.0
73.436778844 56.0
73.441702700 58.0
73.446626556 67.0
73.451550412 56.0
73.456474268 80.0
73.461398124 58.0
73.466321980 68.0
73.471245836 77.0
73.476169692 59.0
73.481093548 74.0
73.486017404 75.0
73.490941260 75.0
73.495865116 66.0
73.500788972 61.0
73.505712828 60.0
73.510636684 64.0
73.515560540 78.0
73.520484396 57.0
73.525408252 62.0
73.530332108 52.0
73.535255964 57.0
73.540179820 68.0
73.545103676 57.0
73.550027532 69.0
73.554951388 68.0
73.559875244 81.0
73.564799100 66.0
73.569722956 58.0
73.574646812 75.0
73.579570668 83.0
73.584494524 82.0
73.589418380 69.0
73.594342236 51.0
73.599266092 81.0
73.604189948 78.0
73.609113804 69.0
73.614037660 72.0
73.618961516 72.0
73.623885372 74.0
73.628809228 55.0
73.633733084 62.0
73.638656940 82.0
73.643580796 73.0
73.648504652 75.0
73.653428508 67.0
73.658352364 75.0
73.663276220 61.0
73.668200076 63.0
73.673123932 72.0
73.678047788 62.0
73.682971644 58.0
73.687895500 59.0
73.692819356 72.0
73.697743212 66.0
73.702667069 65.0
73.707590925 67.0
73.712514781 78.0
73.717438637 88.0
73.722362493 68.0
73.727286349 59.0
73.732210205 62.0
73.737134061 73.0
73.742057917 61.0
73.746981773 72.0
73.751905629 72.0
73.756829485 67.0
73.761753341 59.0
73.766677197 77.0
73.771601053 87.0
73.776524909 68.0
73.781448765 72.0
73.786372621 63.0
73.791296477 69.0
73.796220333 70.0
73.801144189 78.0
73.806068045 75.0
73.810991901 49.0
73.815915757 56.0
73.820839613 64.0
73.825763469 71.0
73.830687325 53.0
73.835611181 80.0
73.840535037 74.0
73.845458893 53.0
73.850382749 68.0
73.855306605 61.0
73.860230461 79.0
73.865154317 58.0
73.870078173 65.0
73.875002029 72.0
73.879925885 85.0
73.884849741 66.0
73.889773597 68.0
73.894697453 74.0
73.899621309 63.0
73.904545165 63.0
73.909469021 66.0
73.914392877 61.0
73.919316733 68.0
73.924240589 66.0
73.929164445 51.0
73.934088301 57.0
73.939012157 64.0
73.943936013 65.0
73.948859869 70.0
73.953783725 66.0
73.958707581 61.0
73.963631437 61.0
73.968555293 68.0
73.973479149 65.0
73.978403005 53.0
73.983326861 63.0
73.988250717 53.0
73.993174573 69.0
73.998098429 74.0
74.003022285 73.0
74.007946141 81.0
74.012869997 68.0
74.017793853 58.0
74.022717709 71.0
74.027641565 59.0
74.032565421 55.0
74.037489277 55.0
74.042413133 76.0
74.047336989 66.0
74.052260845 59.0
74.057184701 60.0
74.062108557 68.0
74.067032413 55.0
74.071956270 70.0
74.076880126 54.0
74.081803982 61.0
74.086727838 71.0
74.091651694 72.0
74.096575550 65.0
74.101499406 78.0
74.106423262 58.0
74.111347118 72.0
74.116270974 59.0
74.121194830 56.0
74.126118686 64.0
74.131042542 64.0
74.135966398 75.0
74.140890254 68.0
74.145814110 54.0
74.150737966 60.0
74.155661822 80.0
74.160585678 69.0
74.165509534 61.0
74.170433390 64.0
74.175357246 58.0
74.180281102 61.0
74.185204958 52.0
74.190128814 68.0
74.195052670 51.0
74.199976526 66.0
74.204900382 70.0
74.209824238 59.0
74.214748094 58.0
74.219671950 66.0
74.224595806 67.0
74.229519662 64.0
74.234443518 86.0
74.239367374 74.0
74.244291230 56.0
74.249215086 62.0
74.254138942 56.0
74.259062798 77.0
74.263986654 63.0
74.268910510 66.0
74.273834366 73.0
74.278758222 65.0
74.283682078 50.0
74.288605934 65.0
74.293529790 70.0
74.298453646 69.0
74.303377502 63.0
74.308301358 56.0
74.313225214 64.0
74.318149070 70.0
74.323072926 69.0
74.327996782 54.0
74.332920638 49.0
74.337844494 71.0
74.342768350 76.0
74.347692206 71.0
74.352616062 64.0
74.357539918 59.0
74.362463774 64.0
74.367387630 72.0
74.372311486 64.0
74.377235342 67.0
74.382159198 65.0
74.387083054 58.0
74.392006910 54.0
74.396930766 74.0
74.401854622 73.0
74.406778478 61.0
74.411702334 65.0
74.416626190 68.0
74.421550046 66.0
74.426473902 50.0
74.431397758 53.0
74.436321614 48.0
74.441245470 64.0
74.446169327 76.0
74.451093183 71.0
74.456017039 72.0
74.460940895 61.0
74.465864751 83.0
74.470788607 65.0
74.475712463 76.0
74.480636319 53.0
74.485560175 65.0
74.490484031 66.0
74.495407887 62.0
74.500331743 66.0
74.505255599 54.0
74.510179455 75.0
74.515103311 68.0
74.520027167 43.0
74.524951023 63.0
74.529874879 80.0
74.534798735 84.0
74.539722591 80.0
74.544646447 66.0
74.549570303 54.0
74.554494159 67.0
74.559418015 80.0
74.564341871 70.0
74.569265727 69.0
74.574189583 63.0
74.579113439 53.0
74.584037295 68.0
74.588961151 68.0
74.593885007 73.0
74.598808863 66.0
74.603732719 59.0
74.608656575 64.0
74.613580431 72.0
74.618504287 57.0
74.623428143 70.0
74.628351999 70.0
74.633275855 60.0
74.638199711 74.0
74.643123567 75.0
74.648047423 52.0
74.652971279 71.0
74.657895135 78.0
74.662818991 59.0
74.667742847 68.0
74.672666703 67.0
74.677590559 55.0
74.682514415 72.0
74.687438271 57.0
74.692362127 57.0
74.697285983 58.0
74.702209839 79.0
74.707133695 72.0
74.712057551 85.0
74.716981407 62.0
74.721905263 76.0
74.726829119 61.0
74.731752975 64.0
74.736676831 63.0
74.741600687 70.0
74.746524543 72.0
74.751448399 71.0
74.756372255 46.0
74.761296111 59.0
74.766219967 65.0
74.771143823 73.0
74.776067679 52.0
74.780991535 52.0
74.785915391 52.0
74.790839247 69.0
74.795763103 80.0
74.800686959 61.0
74.805610815 67.0
74.810534671 55.0
74.815458528 57.0
74.820382384 71.0
74.825306240 67.0
74.830230096 67.0
74.835153952 63.0
74.840077808 60.0
74.845001664 71.0
74.849925520 55.0
74.854849376 75.0
74.859773232 62.0
74.864697088 74.0
74.869620944 63.0
74.874544800 80.0
74.879468656 62.0
74.884392512 71.0
74.889316368 65.0
74.894240224 57.0
74.899164080 61.0
74.904087936 76.0
74.909011792 50.0
74.913935648 72.0
74.918859504 63.0
74.923783360 70.0
74.928707216 67.0
74.933631072 79.0
74.938554928 77.0
74.943478784 55.0
74.948402640 67.0
74.953326496 71.0
74.958250352 69.0
74.963174208 48.0
74.968098064 80.0
74.973021920 72.0
74.977945776 62.0
74.982869632 74.0
74.987793488 58.0
74.992717344 60.0
74.997641200 75.0
