30.002461930 73.0
30.007385786 81.0
30.012309642 90.0
30.017233498 78.0
30.022157354 67.0
30.027081210 84.0
30.032005066 91.0
30.036928922 77.0
30.041852778 65.0
30.046776634 72.0
30.051700490 98.0
30.056624346 80.0
30.061548202 66.0
30.066472058 65.0
30.071395914 90.0
30.076319770 78.0
30.081243626 87.0
30.086167482 107.0
30.091091338 84.0
30.096015194 74.0
30.100939050 71.0
30.105862906 80.0
30.110786762 72.0
30.115710618 72.0
30.120634474 85.0
30.125558330 87.0
30.130482186 91.0
30.135406042 82.0
30.140329898 95.0
30.145253754 73.0
30.150177610 61.0
30.155101466 86.0
30.160025322 86.0
30.164949178 83.0
30.169873034 97.0
30.174796890 88.0
30.179720746 86.0
30.184644602 85.0
30.189568458 91.0
30.194492314 87.0
30.199416170 88.0
30.204340026 93.0
30.209263882 74.0
30.214187738 69.0
30.219111594 71.0
30.224035450 81.0
30.228959306 92.0
30.233883162 80.0
30.238807018 69.0
30.243730874 94.0
30.248654730 71.0
30.253578587 77.0
30.258502443 69.0
30.263426299 85.0
30.268350155 77.0
30.273274011 88.0
30.278197867 77.0
30.283121723 80.0
30.288045579 75.0
30.292969435 80.0
30.297893291 79.0
30.302817147 84.0
30.307741003 79.0
30.312664859 70.0
30.317588715 86.0
30.322512571 81.0
30.327436427 79.0
30.332360283 68.0
30.337284139 89.0
30.342207995 92.0
30.347131851 67.0
30.352055707 78.0
30.356979563 70.0
30.361903419 81.0
30.366827275 86.0
30.371751131 86.0
30.376674987 96.0
30.381598843 89.0
30.386522699 77.0
30.391446555 78.0
30.396370411 77.0
30.401294267 105.0
30.406218123 83.0
30.411141979 89.0
30.416065835 93.0
30.420989691 85.0
30.425913547 91.0
30.430837403 90.0
30.435761259 81.0
30.440685115 79.0
30.445608971 82.0
30.450532827 75.0
30.455456683 71.0
30.460380539 72.0
30.465304395 72.0
30.470228251 84.0
30.475152107 87.0
30.480075963 77.0
30.484999819 78.0
30.489923675 75.0
30.494847531 95.0
30.499771387 68.0
30.504695243 91.0
30.509619099 70.0
30.514542955 81.0
30.519466811 73.0
30.524390667 82.0
30.529314523 73.0
30.534238379 74.0
30.539162235 76.0
30.544086091 76.0
30.549009947 74.0
30.553933803 84.0
30.558857659 87.0
30.563781515 86.0
30.568705371 93.0
30.573629227 66.0
30.578553083 81.0
30.583476939 79.0
30.588400795 77.0
30.593324651 64.0
30.598248507 73.0
30.603172363 83.0
30.608096219 84.0
30.613020075 99.0
30.617943931 73.0
30.622867787 93.0
30.627791643 77.0
30.632715499 82.0
30.637639355 83.0
30.642563211 80.0
30.647487067 90.0
30.652410923 80.0
30.657334779 69.0
30.662258635 75.0
30.667182491 81.0
30.672106347 89.0
30.677030203 82.0
30.681954059 75.0
30.686877915 64.0
30.691801771 69.0
30.696725627 87.0
30.701649483 66.0
30.706573339 87.0
30.711497195 73.0
30.716421051 83.0
30.721344907 71.0
30.726268763 95.0
30.731192619 74.0
30.736116475 91.0
30.741040331 99.0
30.745964187 99.0
30.750888043 75.0
30.755811900 81.0
30.760735756 74.0
30.765659612 79.0
30.770583468 86.0
30.775507324 77.0
30.780431180 66.0
30.785355036 87.0
30.790278892 89.0
30.795202748 81.0
30.800126604 68.0
30.805050460 77.0
30.809974316 80.0
30.814898172 90.0
30.819822028 87.0
30.824745884 78.0
30.829669740 88.0
30.834593596 87.0
30.839517452 78.0
30.844441308 78.0
30.849365164 80.0
30.854289020 87.0
30.859212876 89.0
30.864136732 73.0
30.869060588 98.0
30.873984444 82.0
30.878908300 80.0
30.883832156 100.0
30.888756012 67.0
30.893679868 76.0
30.898603724 87.0
30.903527580 86.0
30.908451436 80.0
30.913375292 101.0
30.918299148 74.0
30.923223004 96.0
30.928146860 75.0
30.933070716 87.0
30.937994572 74.0
30.942918428 69.0
30.947842284 91.0
30.952766140 77.0
30.957689996 85.0
30.962613852 79.0
30.967537708 87.0
30.972461564 61.0
30.977385420 81.0
30.982309276 78.0
30.987233132 91.0
30.992156988 86.0
30.997080844 91.0
31.002004700 78.0
31.006928556 77.0
31.011852412 75.0
31.016776268 78.0
31.021700124 77.0
31.026623980 88.0
31.031547836 68.0
31.036471692 70.0
31.041395548 73.0
31.046319404 81.0
31.051243260 75.0
31.056167116 81.0
31.061090972 88.0
31.066014828 77.0
31.070938684 81.0
31.075862540 77.0
31.080786396 87.0
31.085710252 94.0
31.090634108 76.0
31.095557964 83.0
31.100481820 79.0
31.105405676 77.0
31.110329532 78.0
31.115253388 72.0
31.120177244 75.0
31.125101100 76.0
31.130024956 75.0
31.134948812 93.0
31.139872668 89.0
31.144796524 91.0
31.149720380 92.0
31.154644236 79.0
31.159568092 79.0
31.164491948 82.0
31.169415804 94.0
31.174339660 71.0
31.179263516 95.0
31.184187372 93.0
31.189111228 92.0
31.194035084 77.0
31.198958940 94.0
31.203882796 90.0
31.208806652 74.0
31.213730508 103.0
31.218654364 82.0
31.223578220 81.0
31.228502076 74.0
31.233425932 77.0
31.238349788 70.0
31.243273644 64.0
31.248197500 66.0
31.253121357 91.0
31.258045213 80.0
31.262969069 72.0
31.267892925 69.0
31.272816781 79.0
31.277740637 80.0
31.282664493 96.0
31.287588349 68.0
31.292512205 87.0
31.297436061 87.0
31.302359917 79.0
31.307283773 91.0
31.312207629 90.0
31.317131485 74.0
31.322055341 72.0
31.326979197 79.0
31.331903053 81.0
31.336826909 81.0
31.341750765 88.0
31.346674621 77.0
31.351598477 77.0
31.356522333 81.0
31.361446189 88.0
31.366370045 79.0
31.371293901 91.0
31.376217757 65.0
31.381141613 85.0
31.386065469 67.0
31.390989325 71.0
31.395913181 93.0
31.400837037 85.0
31.405760893 92.0
31.410684749 65.0
31.415608605 66.0
31.420532461 75.0
31.425456317 93.0
31.430380173 85.0
31.435304029 70.0
31.440227885 80.0
31.445151741 92.0
31.450075597 83.0
31.454999453 70.0
31.459923309 82.0
31.464847165 90.0
31.469771021 74.0
31.474694877 73.0
31.479618733 58.0
31.484542589 95.0
31.489466445 77.0
31.494390301 96.0
31.499314157 94.0
31.504238013 85.0
31.509161869 71.0
31.514085725 88.0
31.519009581 87.0
31.523933437 81.0
31.528857293 83.0
31.533781149 84.0
31.538705005 75.0
31.543628861 90.0
31.548552717 82.0
31.553476573 79.0
31.558400429 71.0
31.563324285 63.0
31.568248141 86.0
31.573171997 71.0
31.578095853 80.0
31.583019709 89.0
31.587943565 76.0
31.592867421 73.0
31.597791277 89.0
31.602715133 91.0
31.607638989 72.0
31.612562845 67.0
31.617486701 85.0
31.622410557 78.0
31.627334413 90.0
31.632258269 78.0
31.637182125 98.0
31.642105981 92.0
31.647029837 94.0
31.651953693 90.0
31.656877549 100.0
31.661801405 72.0
31.666725261 85.0
31.671649117 88.0
31.676572973 79.0
31.681496829 88.0
31.686420685 78.0
31.691344541 81.0
31.696268397 82.0
31.701192253 93.0
31.706116109 87.0
31.711039965 80.0
31.715963821 57.0
31.720887677 76.0
31.725811533 71.0
31.730735389 63.0
31.735659245 79.0
31.740583101 76.0
31.745506957 75.0
31.750430813 78.0
31.755354670 66.0
31.760278526 85.0
31.765202382 89.0
31.770126238 73.0
31.775050094 85.0
31.779973950 66.0
31.784897806 78.0
31.789821662 93.0
31.794745518 88.0
31.799669374 84.0
31.804593230 77.0
31.809517086 99.0
31.814440942 61.0
31.819364798 78.0
31.824288654 70.0
31.829212510 68.0
31.834136366 93.0
31.839060222 87.0
31.843984078 74.0
31.848907934 90.0
31.853831790 79.0
31.858755646 78.0
31.863679502 86.0
31.868603358 80.0
31.873527214 78.0
31.878451070 83.0
31.883374926 68.0
31.888298782 88.0
31.893222638 72.0
31.898146494 73.0
31.903070350 92.0
31.907994206 68.0
31.912918062 76.0
31.917841918 83.0
31.922765774 64.0
31.927689630 80.0
31.932613486 78.0
31.937537342 62.0
31.942461198 79.0
31.947385054 80.0
31.952308910 76.0
31.957232766 77.0
31.962156622 91.0
31.967080478 83.0
31.972004334 103.0
31.976928190 80.0
31.981852046 69.0
31.986775902 82.0
31.991699758 88.0
31.996623614 80.0
32.001547470 73.0
32.006471326 73.0
32.011395182 87.0
32.016319038 75.0
32.021242894 79.0
32.026166750 69.0
32.031090606 69.0
32.036014462 79.0
32.040938318 69.0
32.045862174 80.0
32.050786030 74.0
32.055709886 94.0
32.060633742 76.0
32.065557598 71.0
32.070481454 67.0
32.075405310 82.0
32.080329166 94.0
32.085253022 81.0
32.090176878 77.0
32.095100734 87.0
32.100024590 77.0
32.104948446 81.0
32.109872302 82.0
32.114796158 84.0
32.119720014 92.0
32.124643870 77.0
32.129567726 90.0
32.134491582 85.0
32.139415438 74.0
32.144339294 71.0
32.149263150 84.0
32.154187006 88.0
32.159110862 73.0
32.164034718 88.0
32.168958574 98.0
32.173882430 76.0
32.178806286 67.0
32.183730142 83.0
32.188653998 82.0
32.193577854 67.0
32.198501710 79.0
32.203425566 80.0
32.208349422 98.0
32.213273278 94.0
32.218197134 90.0
32.223120990 63.0
32.228044846 86.0
32.232968702 81.0
32.237892558 87.0
32.242816414 73.0
32.247740270 82.0
32.252664127 71.0
32.257587983 90.0
32.262511839 95.0
32.267435695 82.0
32.272359551 97.0
32.277283407 87.0
32.282207263 74.0
32.287131119 70.0
32.292054975 79.0
32.296978831 90.0
32.301902687 77.0
32.306826543 77.0
32.311750399 77.0
32.316674255 80.0
32.321598111 85.0
32.326521967 80.0
32.331445823 74.0
32.336369679 84.0
32.341293535 80.0
32.346217391 80.0
32.351141247 69.0
32.356065103 70.0
32.360988959 94.0
32.365912815 94.0
32.370836671 78.0
32.375760527 91.0
32.380684383 86.0
32.385608239 84.0
32.390532095 65.0
32.395455951 92.0
32.400379807 88.0
32.405303663 82.0
32.410227519 65.0
32.415151375 68.0
32.420075231 85.0
32.424999087 85.0
32.429922943 67.0
32.434846799 81.0
32.439770655 83.0
32.444694511 90.0
32.449618367 63.0
32.454542223 69.0
32.459466079 101.0
32.464389935 82.0
32.469313791 83.0
32.474237647 84.0
32.479161503 82.0
32.484085359 80.0
32.489009215 85.0
32.493933071 72.0
32.498856927 98.0
32.503780783 88.0
32.508704639 80.0
32.513628495 65.0
32.518552351 96.0
32.523476207 68.0
32.528400063 85.0
32.533323919 58.0
32.538247775 83.0
32.543171631 84.0
32.548095487 88.0
32.553019343 72.0
32.557943199 76.0
32.562867055 85.0
32.567790911 76.0
32.572714767 76.0
32.577638623 85.0
32.582562479 71.0
32.587486335 85.0
32.592410191 100.0
32.597334047 75.0
32.602257903 84.0
32.607181759 83.0
32.612105615 73.0
32.617029471 86.0
32.621953327 89.0
32.626877183 79.0
32.631801039 80.0
32.636724895 85.0
32.641648751 89.0
32.646572607 93.0
32.651496463 89.0
32.656420319 85.0
32.661344175 86.0
32.666268031 89.0
32.671191887 88.0
32.676115743 94.0
32.681039599 76.0
32.685963455 68.0
32.690887311 85.0
32.695811167 91.0
32.700735023 81.0
32.705658879 75.0
32.710582735 85.0
32.715506591 74.0
32.720430447 83.0
32.725354303 97.0
32.730278159 84.0
32.735202015 82.0
32.740125871 89.0
32.745049727 90.0
32.749973583 92.0
32.754897440 99.0
32.759821296 81.0
32.764745152 86.0
32.769669008 90.0
32.774592864 85.0
32.779516720 88.0
32.784440576 94.0
32.789364432 101.0
32.794288288 80.0
32.799212144 77.0
32.804136000 81.0
32.809059856 71.0
32.813983712 97.0
32.818907568 74.0
32.823831424 79.0
32.828755280 75.0
32.833679136 80.0
32.838602992 76.0
32.843526848 84.0
32.848450704 75.0
32.853374560 73.0
32.858298416 72.0
32.863222272 83.0
32.868146128 86.0
32.873069984 83.0
32.877993840 84.0
32.882917696 87.0
32.887841552 75.0
32.892765408 89.0
32.897689264 71.0
32.902613120 96.0
32.907536976 93.0
32.912460832 91.0
32.917384688 77.0
32.922308544 86.0
32.927232400 68.0
32.932156256 88.0
32.937080112 75.0
32.942003968 76.0
32.946927824 84.0
32.951851680 83.0
32.956775536 87.0
32.961699392 84.0
32.966623248 92.0
32.971547104 84.0
32.976470960 69.0
32.981394816 79.0
32.986318672 81.0
32.991242528 106.0
32.996166384 78.0
33.001090240 82.0
33.006014096 85.0
33.010937952 68.0
33.015861808 88.0
33.020785664 74.0
33.025709520 88.0
33.030633376 97.0
33.035557232 82.0
33.040481088 86.0
33.045404944 95.0
33.050328800 74.0
33.055252656 92.0
33.060176512 74.0
33.065100368 83.0
33.070024224 69.0
33.074948080 90.0
33.079871936 89.0
33.084795792 94.0
33.089719648 81.0
33.094643504 79.0
33.099567360 103.0
33.104491216 73.0
33.109415072 70.0
33.114338928 84.0
33.119262784 85.0
33.124186640 80.0
33.129110496 75.0
33.134034352 87.0
33.138958208 100.0
33.143882064 75.0
33.148805920 80.0
33.153729776 58.0
33.158653632 86.0
33.163577488 78.0
33.168501344 89.0
33.173425200 88.0
33.178349056 83.0
33.183272912 95.0
33.188196768 80.0
33.193120624 81.0
33.198044480 70.0
33.202968336 81.0
33.207892192 80.0
33.212816048 70.0
33.217739904 78.0
33.222663760 78.0
33.227587616 85.0
33.232511472 80.0
33.237435328 73.0
33.242359184 71.0
33.247283040 64.0
33.252206897 82.0
33.257130753 72.0
33.262054609 68.0
33.266978465 72.0
33.271902321 84.0
33.276826177 88.0
33.281750033 79.0
33.286673889 86.0
33.291597745 76.0
33.296521601 63.0
33.301445457 89.0
33.306369313 78.0
33.311293169 99.0
33.316217025 82.0
33.321140881 89.0
33.326064737 83.0
33.330988593 81.0
33.335912449 77.0
33.340836305 90.0
33.345760161 90.0
33.350684017 77.0
33.355607873 75.0
33.360531729 74.0
33.365455585 90.0
33.370379441 96.0
33.375303297 90.0
33.380227153 84.0
33.385151009 70.0
33.390074865 74.0
33.394998721 78.0
33.399922577 89.0
33.404846433 67.0
33.409770289 97.0
33.414694145 83.0
33.419618001 85.0
33.424541857 89.0
33.429465713 89.0
33.434389569 83.0
33.439313425 89.0
33.444237281 95.0
33.449161137 85.0
33.454084993 82.0
33.459008849 81.0
33.463932705 88.0
33.468856561 86.0
33.473780417 69.0
33.478704273 90.0
33.483628129 80.0
33.488551985 73.0
33.493475841 77.0
33.498399697 93.0
33.503323553 78.0
33.508247409 73.0
33.513171265 83.0
33.518095121 68.0
33.523018977 97.0
33.527942833 84.0
33.532866689 85.0
33.537790545 95.0
33.542714401 87.0
33.547638257 93.0
33.552562113 91.0
33.557485969 81.0
33.562409825 84.0
33.567333681 84.0
33.572257537 75.0
33.577181393 86.0
33.582105249 95.0
33.587029105 80.0
33.591952961 76.0
33.596876817 97.0
33.601800673 104.0
33.606724529 93.0
33.611648385 96.0
33.616572241 97.0
33.621496097 80.0
33.626419953 89.0
33.631343809 99.0
33.636267665 110.0
33.641191521 103.0
33.646115377 109.0
33.651039233 95.0
33.655963089 84.0
33.660886945 83.0
33.665810801 113.0
33.670734657 81.0
33.675658513 90.0
33.680582369 87.0
33.685506225 102.0
33.690430081 96.0
33.695353937 73.0
33.700277793 90.0
33.705201649 97.0
33.710125505 90.0
33.715049361 87.0
33.719973217 85.0
33.724897073 92.0
33.729820929 95.0
33.734744785 89.0
33.739668641 104.0
33.744592497 94.0
33.749516353 94.0
33.754440210 101.0
33.759364066 86.0
33.764287922 92.0
33.769211778 112.0
33.774135634 102.0
33.779059490 105.0
33.783983346 108.0
33.788907202 101.0
33.793831058 107.0
33.798754914 104.0
33.803678770 103.0
33.808602626 98.0
33.813526482 109.0
33.818450338 114.0
33.823374194 121.0
33.828298050 129.0
33.833221906 126.0
33.838145762 144.0
33.843069618 174.0
33.847993474 200.0
33.852917330 192.0
33.857841186 353.0
33.862765042 393.0
33.867688898 583.0
33.872612754 667.0
33.877536610 907.0
33.882460466 1062.0
33.887384322 1237.0
33.892308178 1265.0
33.897232034 1314.0
33.902155890 1434.0
33.907079746 1332.0
33.912003602 1202.0
33.916927458 1133.0
33.921851314 1079.0
33.926775170 873.0
33.931699026 770.0
33.936622882 606.0
33.941546738 514.0
33.946470594 392.0
33.951394450 341.0
33.956318306 294.0
33.961242162 217.0
33.966166018 206.0
33.971089874 206.0
33.976013730 172.0
33.980937586 172.0
33.985861442 148.0
33.990785298 126.0
33.995709154 129.0
34.000633010 154.0
34.005556866 116.0
34.010480722 134.0
34.015404578 135.0
34.020328434 122.0
34.025252290 127.0
34.030176146 122.0
34.035100002 119.0
34.040023858 94.0
34.044947714 123.0
34.049871570 107.0
34.054795426 114.0
34.059719282 102.0
34.064643138 112.0
34.069566994 121.0
34.074490850 98.0
34.079414706 108.0
34.084338562 96.0
34.089262418 116.0
34.094186274 108.0
34.099110130 113.0
34.104033986 94.0
34.108957842 102.0
34.113881698 112.0
34.118805554 109.0
34.123729410 101.0
34.128653266 127.0
34.133577122 103.0
34.138500978 110.0
34.143424834 109.0
34.148348690 95.0
34.153272546 92.0
34.158196402 108.0
34.163120258 111.0
34.168044114 97.0
34.172967970 94.0
34.177891826 97.0
34.182815682 92.0
34.187739538 84.0
34.192663394 96.0
34.197587250 80.0
34.202511106 123.0
34.207434962 112.0
34.212358818 112.0
34.217282674 106.0
34.222206530 87.0
34.227130386 102.0
34.232054242 113.0
34.236978098 107.0
34.241901954 104.0
34.246825810 96.0
34.251749667 100.0
34.256673523 95.0
34.261597379 106.0
34.266521235 99.0
34.271445091 91.0
34.276368947 116.0
34.281292803 105.0
34.286216659 100.0
34.291140515 97.0
34.296064371 83.0
34.300988227 107.0
34.305912083 83.0
34.310835939 112.0
34.315759795 104.0
34.320683651 91.0
34.325607507 99.0
34.330531363 101.0
34.335455219 94.0
34.340379075 93.0
34.345302931 84.0
34.350226787 94.0
34.355150643 88.0
34.360074499 99.0
34.364998355 90.0
34.369922211 81.0
34.374846067 91.0
34.379769923 96.0
34.384693779 85.0
34.389617635 108.0
34.394541491 113.0
34.399465347 98.0
34.404389203 109.0
34.409313059 109.0
34.414236915 98.0
34.419160771 83.0
34.424084627 106.0
34.429008483 90.0
34.433932339 103.0
34.438856195 90.0
34.443780051 97.0
34.448703907 110.0
34.453627763 82.0
34.458551619 101.0
34.463475475 105.0
34.468399331 110.0
34.473323187 93.0
34.478247043 95.0
34.483170899 102.0
34.488094755 91.0
34.493018611 94.0
34.497942467 99.0
34.502866323 96.0
34.507790179 86.0
34.512714035 91.0
34.517637891 89.0
34.522561747 96.0
34.527485603 85.0
34.532409459 90.0
34.537333315 89.0
34.542257171 101.0
34.547181027 79.0
34.552104883 90.0
34.557028739 96.0
34.561952595 122.0
34.566876451 92.0
34.571800307 86.0
34.576724163 83.0
34.581648019 79.0
34.586571875 103.0
34.591495731 91.0
34.596419587 90.0
34.601343443 99.0
34.606267299 108.0
34.611191155 99.0
34.616115011 95.0
34.621038867 89.0
34.625962723 90.0
34.630886579 96.0
34.635810435 108.0
34.640734291 96.0
34.645658147 95.0
34.650582003 95.0
34.655505859 88.0
34.660429715 99.0
34.665353571 100.0
34.670277427 118.0
34.675201283 93.0
34.680125139 92.0
34.685048995 94.0
34.689972851 105.0
34.694896707 108.0
34.699820563 107.0
34.704744419 97.0
34.709668275 92.0
34.714592131 99.0
34.719515987 114.0
34.724439843 85.0
34.729363699 115.0
34.734287555 111.0
34.739211411 100.0
34.744135267 102.0
34.749059123 95.0
34.753982980 100.0
34.758906836 92.0
34.763830692 97.0
34.768754548 86.0
34.773678404 116.0
34.778602260 105.0
34.783526116 109.0
34.788449972 87.0
34.793373828 80.0
34.798297684 97.0
34.803221540 102.0
34.808145396 96.0
34.813069252 93.0
34.817993108 100.0
34.822916964 83.0
34.827840820 91.0
34.832764676 97.0
34.837688532 98.0
34.842612388 104.0
34.847536244 115.0
34.852460100 131.0
34.857383956 90.0
34.862307812 93.0
34.867231668 95.0
34.872155524 123.0
34.877079380 91.0
34.882003236 106.0
34.886927092 99.0
34.891850948 95.0
34.896774804 106.0
34.901698660 107.0
34.906622516 94.0
34.911546372 104.0
34.916470228 123.0
34.921394084 108.0
34.926317940 102.0
34.931241796 116.0
34.936165652 96.0
34.941089508 125.0
34.946013364 110.0
34.950937220 123.0
34.955861076 111.0
34.960784932 98.0
34.965708788 96.0
34.970632644 106.0
34.975556500 109.0
34.980480356 110.0
34.985404212 112.0
34.990328068 106.0
34.995251924 101.0
35.000175780 96.0
35.005099636 111.0
35.010023492 128.0
35.014947348 101.0
35.019871204 103.0
35.024795060 104.0
35.029718916 90.0
35.034642772 107.0
35.039566628 114.0
35.044490484 114.0
35.049414340 104.0
35.054338196 119.0
35.059262052 90.0
35.064185908 101.0
35.069109764 112.0
35.074033620 98.0
35.078957476 102.0
35.083881332 94.0
35.088805188 107.0
35.093729044 116.0
35.098652900 140.0
35.103576756 118.0
35.108500612 103.0
35.113424468 106.0
35.118348324 116.0
35.123272180 117.0
35.128196036 116.0
35.133119892 99.0
35.138043748 110.0
35.142967604 114.0
35.147891460 116.0
35.152815316 102.0
35.157739172 105.0
35.162663028 118.0
35.167586884 100.0
35.172510740 120.0
35.177434596 104.0
35.182358452 110.0
35.187282308 114.0
35.192206164 112.0
35.197130020 125.0
35.202053876 104.0
35.206977732 98.0
35.211901588 106.0
35.216825444 100.0
35.221749300 102.0
35.226673156 114.0
35.231597012 107.0
35.236520868 100.0
35.241444724 112.0
35.246368580 116.0
35.251292437 112.0
35.256216293 122.0
35.261140149 102.0
35.266064005 103.0
35.270987861 100.0
35.275911717 98.0
35.280835573 117.0
35.285759429 124.0
35.290683285 105.0
35.295607141 126.0
35.300530997 102.0
35.305454853 119.0
35.310378709 107.0
35.315302565 107.0
35.320226421 111.0
35.325150277 104.0
35.330074133 114.0
35.334997989 116.0
35.339921845 85.0
35.344845701 108.0
35.349769557 111.0
35.354693413 98.0
35.359617269 109.0
35.364541125 104.0
35.369464981 111.0
35.374388837 120.0
35.379312693 117.0
35.384236549 121.0
35.389160405 99.0
35.394084261 130.0
35.399008117 111.0
35.403931973 129.0
35.408855829 130.0
35.413779685 103.0
35.418703541 138.0
35.423627397 115.0
35.428551253 103.0
35.433475109 145.0
35.438398965 119.0
35.443322821 138.0
35.448246677 112.0
35.453170533 141.0
35.458094389 123.0
35.463018245 140.0
35.467942101 149.0
35.472865957 136.0
35.477789813 136.0
35.482713669 144.0
35.487637525 156.0
35.492561381 142.0
35.497485237 138.0
35.502409093 132.0
35.507332949 119.0
35.512256805 154.0
35.517180661 142.0
35.522104517 162.0
35.527028373 139.0
35.531952229 172.0
35.536876085 177.0
35.541799941 153.0
35.546723797 170.0
35.551647653 144.0
35.556571509 154.0
35.561495365 155.0
35.566419221 152.0
35.571343077 170.0
35.576266933 177.0
35.581190789 184.0
35.586114645 181.0
35.591038501 173.0
35.595962357 189.0
35.600886213 169.0
35.605810069 184.0
35.610733925 194.0
35.615657781 223.0
35.620581637 190.0
35.625505493 208.0
35.630429349 221.0
35.635353205 216.0
35.640277061 200.0
35.645200917 217.0
35.650124773 220.0
35.655048629 243.0
35.659972485 238.0
35.664896341 224.0
35.669820197 266.0
35.674744053 229.0
35.679667909 238.0
35.684591765 267.0
35.689515621 281.0
35.694439477 272.0
35.699363333 267.0
35.704287189 310.0
35.709211045 279.0
35.714134901 309.0
35.719058757 297.0
35.723982613 297.0
35.728906469 305.0
35.733830325 322.0
35.738754181 296.0
35.743678037 330.0
35.748601893 317.0
35.753525750 346.0
35.758449606 320.0
35.763373462 338.0
35.768297318 351.0
35.773221174 332.0
35.778145030 371.0
35.783068886 348.0
35.787992742 333.0
35.792916598 395.0
35.797840454 389.0
35.802764310 375.0
35.807688166 382.0
35.812612022 375.0
35.817535878 418.0
35.822459734 414.0
35.827383590 415.0
35.832307446 364.0
35.837231302 432.0
35.842155158 381.0
35.847079014 379.0
35.852002870 407.0
35.856926726 440.0
35.861850582 469.0
35.866774438 448.0
35.871698294 432.0
35.876622150 430.0
35.881546006 482.0
35.886469862 471.0
35.891393718 461.0
35.896317574 507.0
35.901241430 448.0
35.906165286 495.0
35.911089142 463.0
35.916012998 505.0
35.920936854 485.0
35.925860710 538.0
35.930784566 499.0
35.935708422 469.0
35.940632278 547.0
35.945556134 509.0
35.950479990 553.0
35.955403846 523.0
35.960327702 533.0
35.965251558 532.0
35.970175414 532.0
35.975099270 547.0
35.980023126 550.0
35.984946982 574.0
35.989870838 589.0
35.994794694 559.0
35.999718550 601.0
36.004642406 608.0
36.009566262 622.0
36.014490118 615.0
36.019413974 587.0
36.024337830 613.0
36.029261686 608.0
36.034185542 607.0
36.039109398 654.0
36.044033254 614.0
36.048957110 616.0
36.053880966 635.0
36.058804822 654.0
36.063728678 607.0
36.068652534 597.0
36.073576390 651.0
36.078500246 628.0
36.083424102 591.0
36.088347958 622.0
36.093271814 611.0
36.098195670 653.0
36.103119526 655.0
36.108043382 653.0
36.112967238 633.0
36.117891094 629.0
36.122814950 679.0
36.127738806 690.0
36.132662662 684.0
36.137586518 642.0
36.142510374 634.0
36.147434230 681.0
36.152358086 623.0
36.157281942 628.0
36.162205798 654.0
36.167129654 618.0
36.172053510 652.0
36.176977366 620.0
36.181901222 643.0
36.186825078 666.0
36.191748934 672.0
36.196672790 652.0
36.201596646 618.0
36.206520502 614.0
36.211444358 637.0
36.216368214 646.0
36.221292070 644.0
36.226215926 693.0
36.231139782 644.0
36.236063638 611.0
36.240987494 662.0
36.245911350 611.0
36.250835207 679.0
36.255759063 666.0
36.260682919 665.0
36.265606775 613.0
36.270530631 626.0
36.275454487 610.0
36.280378343 639.0
36.285302199 595.0
36.290226055 631.0
36.295149911 646.0
36.300073767 590.0
36.304997623 569.0
36.309921479 680.0
36.314845335 640.0
36.319769191 571.0
36.324693047 608.0
36.329616903 587.0
36.334540759 607.0
36.339464615 630.0
36.344388471 639.0
36.349312327 592.0
36.354236183 619.0
36.359160039 576.0
36.364083895 574.0
36.369007751 573.0
36.373931607 567.0
36.378855463 586.0
36.383779319 549.0
36.388703175 625.0
36.393627031 550.0
36.398550887 600.0
36.403474743 523.0
36.408398599 536.0
36.413322455 612.0
36.418246311 482.0
36.423170167 542.0
36.428094023 522.0
36.433017879 542.0
36.437941735 555.0
36.442865591 536.0
36.447789447 537.0
36.452713303 448.0
36.457637159 508.0
36.462561015 504.0
36.467484871 561.0
36.472408727 515.0
36.477332583 485.0
36.482256439 457.0
36.487180295 484.0
36.492104151 496.0
36.497028007 493.0
36.501951863 438.0
36.506875719 447.0
36.511799575 471.0
36.516723431 409.0
36.521647287 481.0
36.526571143 476.0
36.531494999 453.0
36.536418855 428.0
36.541342711 409.0
36.546266567 441.0
36.551190423 408.0
36.556114279 434.0
36.561038135 428.0
36.565961991 432.0
36.570885847 437.0
36.575809703 418.0
36.580733559 399.0
36.585657415 365.0
36.590581271 399.0
36.595505127 450.0
36.600428983 417.0
36.605352839 397.0
36.610276695 415.0
36.615200551 397.0
36.620124407 408.0
36.625048263 393.0
36.629972119 373.0
36.634895975 371.0
36.639819831 377.0
36.644743687 395.0
36.649667543 379.0
36.654591399 385.0
36.659515255 366.0
36.664439111 360.0
36.669362967 382.0
36.674286823 375.0
36.679210679 381.0
36.684134535 310.0
36.689058391 345.0
36.693982247 364.0
36.698906103 343.0
36.703829959 357.0
36.708753815 395.0
36.713677671 388.0
36.718601527 339.0
36.723525383 349.0
36.728449239 335.0
36.733373095 313.0
36.738296951 333.0
36.743220807 332.0
36.748144663 332.0
36.753068520 364.0
36.757992376 392.0
36.762916232 317.0
36.767840088 358.0
36.772763944 346.0
36.777687800 342.0
36.782611656 375.0
36.787535512 306.0
36.792459368 364.0
36.797383224 328.0
36.802307080 360.0
36.807230936 337.0
36.812154792 329.0
36.817078648 358.0
36.822002504 378.0
36.826926360 363.0
36.831850216 356.0
36.836774072 364.0
36.841697928 369.0
36.846621784 358.0
36.851545640 361.0
36.856469496 338.0
36.861393352 361.0
36.866317208 381.0
36.871241064 366.0
36.876164920 363.0
36.881088776 350.0
36.886012632 387.0
36.890936488 351.0
36.895860344 372.0
36.900784200 369.0
36.905708056 387.0
36.910631912 360.0
36.915555768 402.0
36.920479624 372.0
36.925403480 379.0
36.930327336 384.0
36.935251192 404.0
36.940175048 378.0
36.945098904 377.0
36.950022760 412.0
36.954946616 402.0
36.959870472 394.0
36.964794328 384.0
36.969718184 408.0
36.974642040 386.0
36.979565896 420.0
36.984489752 412.0
36.989413608 392.0
36.994337464 416.0
36.999261320 435.0
37.004185176 379.0
37.009109032 395.0
37.014032888 439.0
37.018956744 452.0
37.023880600 458.0
37.028804456 478.0
37.033728312 414.0
37.038652168 438.0
37.043576024 497.0
37.048499880 454.0
37.053423736 495.0
37.058347592 518.0
37.063271448 472.0
37.068195304 476.0
37.073119160 483.0
37.078043016 499.0
37.082966872 513.0
37.087890728 484.0
37.092814584 498.0
37.097738440 532.0
37.102662296 523.0
37.107586152 516.0
37.112510008 522.0
37.117433864 495.0
37.122357720 531.0
37.127281576 532.0
37.132205432 543.0
37.137129288 503.0
37.142053144 519.0
37.146977000 575.0
37.151900856 551.0
37.156824712 570.0
37.161748568 593.0
37.166672424 566.0
37.171596280 568.0
37.176520136 581.0
37.181443992 616.0
37.186367848 572.0
37.191291704 628.0
37.196215560 583.0
37.201139416 626.0
37.206063272 623.0
37.210987128 649.0
37.215910984 671.0
37.220834840 662.0
37.225758696 707.0
37.230682552 663.0
37.235606408 709.0
37.240530264 704.0
37.245454120 717.0
37.250377977 705.0
37.255301833 738.0
37.260225689 771.0
37.265149545 771.0
37.270073401 764.0
37.274997257 768.0
37.279921113 768.0
37.284844969 825.0
37.289768825 838.0
37.294692681 839.0
37.299616537 856.0
37.304540393 866.0
37.309464249 865.0
37.314388105 889.0
37.319311961 891.0
37.324235817 843.0
37.329159673 911.0
37.334083529 947.0
37.339007385 949.0
37.343931241 965.0
37.348855097 966.0
37.353778953 1037.0
37.358702809 1047.0
37.363626665 1044.0
37.368550521 1068.0
37.373474377 1096.0
37.378398233 1065.0
37.383322089 1120.0
37.388245945 1130.0
37.393169801 1298.0
37.398093657 1211.0
37.403017513 1253.0
37.407941369 1221.0
37.412865225 1447.0
37.417789081 1332.0
37.422712937 1532.0
37.427636793 1491.0
37.432560649 1718.0
37.437484505 1927.0
37.442408361 2029.0
37.447332217 2182.0
37.452256073 2352.0
37.457179929 2691.0
37.462103785 2836.0
37.467027641 3099.0
37.471951497 3230.0
37.476875353 3578.0
37.481799209 3424.0
37.486723065 3775.0
37.491646921 3791.0
37.496570777 4096.0
37.501494633 4055.0
37.506418489 4145.0
37.511342345 3979.0
37.516266201 4081.0
37.521190057 4018.0
37.526113913 3996.0
37.531037769 4092.0
37.535961625 4009.0
37.540885481 4321.0
37.545809337 4300.0
37.550733193 4764.0
37.555657049 4741.0
37.560580905 5459.0
37.565504761 5788.0
37.570428617 6268.0
37.575352473 7325.0
37.580276329 7828.0
37.585200185 9518.0
37.590124041 10391.0
37.595047897 13569.0
37.599971753 14874.0
37.604895609 20536.0
37.609819465 24582.0
37.614743321 37515.0
37.619667177 51916.0
37.624591033 89758.0
37.629514889 146281.0
37.634438745 186959.0
37.639362601 247726.0
37.644286457 260559.0
37.649210313 286852.0
37.654134169 286432.0
37.659058025 295272.0
37.663981881 285839.0
37.668905737 286779.0
37.673829593 257927.0
37.678753449 217296.0
37.683677305 170708.0
37.688601161 97663.0
37.693525017 78947.0
37.698448873 46784.0
37.703372729 42280.0
37.708296585 33777.0
37.713220441 37030.0
37.718144297 44266.0
37.723068153 60903.0
37.727992009 82923.0
37.732915865 110368.0
37.737839721 126137.0
37.742763577 141795.0
37.747687433 146513.0
37.752611290 150819.0
37.757535146 149524.0
37.762459002 149126.0
37.767382858 141406.0
37.772306714 130216.0
37.777230570 106745.0
37.782154426 77424.0
37.787078282 55542.0
37.792002138 34518.0
37.796925994 25467.0
37.801849850 17294.0
37.806773706 14039.0
37.811697562 10923.0
37.816621418 9245.0
37.821545274 7744.0
37.826469130 6887.0
37.831392986 6031.0
37.836316842 5581.0
37.841240698 5120.0
37.846164554 4630.0
37.851088410 4193.0
37.856012266 3946.0
37.860936122 3668.0
37.865859978 3629.0
37.870783834 3292.0
37.875707690 3181.0
37.880631546 2968.0
37.885555402 2813.0
37.890479258 2614.0
37.895403114 2606.0
37.900326970 2366.0
37.905250826 2437.0
37.910174682 2175.0
37.915098538 2192.0
37.920022394 2001.0
37.924946250 2077.0
37.929870106 1828.0
37.934793962 1957.0
37.939717818 1715.0
37.944641674 1800.0
37.949565530 1790.0
37.954489386 1715.0
37.959413242 1631.0
37.964337098 1514.0
37.969260954 1497.0
37.974184810 1442.0
37.979108666 1470.0
37.984032522 1334.0
37.988956378 1413.0
37.993880234 1308.0
37.998804090 1322.0
38.003727946 1241.0
38.008651802 1261.0
38.013575658 1101.0
38.018499514 1203.0
38.023423370 1167.0
38.028347226 1143.0
38.033271082 1102.0
38.038194938 1120.0
38.043118794 1133.0
38.048042650 1125.0
38.052966506 1022.0
38.057890362 1073.0
38.062814218 1058.0
38.067738074 929.0
38.072661930 974.0
38.077585786 988.0
38.082509642 950.0
38.087433498 903.0
38.092357354 952.0
38.097281210 907.0
38.102205066 929.0
38.107128922 903.0
38.112052778 824.0
38.116976634 892.0
38.121900490 848.0
38.126824346 855.0
38.131748202 828.0
38.136672058 789.0
38.141595914 794.0
38.146519770 757.0
38.151443626 742.0
38.156367482 768.0
38.161291338 712.0
38.166215194 736.0
38.171139050 744.0
38.176062906 715.0
38.180986762 682.0
38.185910618 707.0
38.190834474 689.0
38.195758330 697.0
38.200682186 658.0
38.205606042 614.0
38.210529898 635.0
38.215453754 603.0
38.220377610 627.0
38.225301466 604.0
38.230225322 617.0
38.235149178 577.0
38.240073034 558.0
38.244996890 566.0
38.249920747 567.0
38.254844603 603.0
38.259768459 573.0
38.264692315 581.0
38.269616171 470.0
38.274540027 529.0
38.279463883 501.0
38.284387739 489.0
38.289311595 522.0
38.294235451 526.0
38.299159307 486.0
38.304083163 481.0
38.309007019 442.0
38.313930875 463.0
38.318854731 468.0
38.323778587 434.0
38.328702443 419.0
38.333626299 429.0
38.338550155 452.0
38.343474011 407.0
38.348397867 443.0
38.353321723 442.0
38.358245579 397.0
38.363169435 415.0
38.368093291 423.0
38.373017147 395.0
38.377941003 404.0
38.382864859 405.0
38.387788715 412.0
38.392712571 384.0
38.397636427 459.0
38.402560283 379.0
38.407484139 388.0
38.412407995 362.0
38.417331851 360.0
38.422255707 389.0
38.427179563 364.0
38.432103419 348.0
38.437027275 353.0
38.441951131 352.0
38.446874987 354.0
38.451798843 327.0
38.456722699 360.0
38.461646555 308.0
38.466570411 304.0
38.471494267 326.0
38.476418123 294.0
38.481341979 309.0
38.486265835 266.0
38.491189691 325.0
38.496113547 301.0
38.501037403 311.0
38.505961259 280.0
38.510885115 298.0
38.515808971 301.0
38.520732827 276.0
38.525656683 292.0
38.530580539 298.0
38.535504395 272.0
38.540428251 265.0
38.545352107 289.0
38.550275963 213.0
38.555199819 219.0
38.560123675 255.0
38.565047531 210.0
38.569971387 197.0
38.574895243 215.0
38.579819099 206.0
38.584742955 196.0
38.589666811 202.0
38.594590667 214.0
38.599514523 217.0
38.604438379 215.0
38.609362235 214.0
38.614286091 206.0
38.619209947 188.0
38.624133803 178.0
38.629057659 198.0
38.633981515 183.0
38.638905371 169.0
38.643829227 178.0
38.648753083 176.0
38.653676939 179.0
38.658600795 183.0
38.663524651 171.0
38.668448507 185.0
38.673372363 176.0
38.678296219 163.0
38.683220075 163.0
38.688143931 155.0
38.693067787 165.0
38.697991643 162.0
38.702915499 157.0
38.707839355 180.0
38.712763211 144.0
38.717687067 170.0
38.722610923 161.0
38.727534779 156.0
38.732458635 172.0
38.737382491 160.0
38.742306347 161.0
38.747230203 137.0
38.752154060 160.0
38.757077916 161.0
38.762001772 170.0
38.766925628 130.0
38.771849484 147.0
38.776773340 153.0
38.781697196 151.0
38.786621052 150.0
38.791544908 143.0
38.796468764 167.0
38.801392620 151.0
38.806316476 160.0
38.811240332 147.0
38.816164188 126.0
38.821088044 139.0
38.826011900 154.0
38.830935756 139.0
38.835859612 148.0
38.840783468 143.0
38.845707324 139.0
38.850631180 128.0
38.855555036 142.0
38.860478892 153.0
38.865402748 135.0
38.870326604 144.0
38.875250460 154.0
38.880174316 163.0
38.885098172 135.0
38.890022028 138.0
38.894945884 135.0
38.899869740 144.0
38.904793596 128.0
38.909717452 147.0
38.914641308 141.0
38.919565164 127.0
38.924489020 140.0
38.929412876 151.0
38.934336732 114.0
38.939260588 137.0
38.944184444 121.0
38.949108300 127.0
38.954032156 134.0
38.958956012 126.0
38.963879868 167.0
38.968803724 142.0
38.973727580 123.0
38.978651436 125.0
38.983575292 127.0
38.988499148 127.0
38.993423004 123.0
38.998346860 134.0
39.003270716 111.0
39.008194572 137.0
39.013118428 147.0
39.018042284 142.0
39.022966140 127.0
39.027889996 129.0
39.032813852 131.0
39.037737708 113.0
39.042661564 118.0
39.047585420 112.0
39.052509276 136.0
39.057433132 127.0
39.062356988 129.0
39.067280844 119.0
39.072204700 117.0
39.077128556 102.0
39.082052412 117.0
39.086976268 100.0
39.091900124 135.0
39.096823980 91.0
39.101747836 113.0
39.106671692 139.0
39.111595548 114.0
39.116519404 125.0
39.121443260 113.0
39.126367116 114.0
39.131290972 115.0
39.136214828 132.0
39.141138684 114.0
39.146062540 115.0
39.150986396 120.0
39.155910252 129.0
39.160834108 101.0
39.165757964 121.0
39.170681820 111.0
39.175605676 107.0
39.180529532 120.0
39.185453388 118.0
39.190377244 118.0
39.195301100 108.0
39.200224956 108.0
39.205148812 119.0
39.210072668 101.0
39.214996524 105.0
39.219920380 138.0
39.224844236 92.0
39.229768092 106.0
39.234691948 119.0
39.239615804 112.0
39.244539660 105.0
39.249463517 90.0
39.254387373 91.0
39.259311229 108.0
39.264235085 112.0
39.269158941 115.0
39.274082797 89.0
39.279006653 107.0
39.283930509 115.0
39.288854365 96.0
39.293778221 118.0
39.298702077 100.0
39.303625933 82.0
39.308549789 102.0
39.313473645 104.0
39.318397501 99.0
39.323321357 105.0
39.328245213 107.0
39.333169069 91.0
39.338092925 110.0
39.343016781 108.0
39.347940637 118.0
39.352864493 98.0
39.357788349 104.0
39.362712205 109.0
39.367636061 101.0
39.372559917 104.0
39.377483773 122.0
39.382407629 106.0
39.387331485 101.0
39.392255341 103.0
39.397179197 117.0
39.402103053 102.0
39.407026909 96.0
39.411950765 101.0
39.416874621 107.0
39.421798477 96.0
39.426722333 121.0
39.431646189 101.0
39.436570045 97.0
39.441493901 118.0
39.446417757 98.0
39.451341613 107.0
39.456265469 94.0
39.461189325 93.0
39.466113181 105.0
39.471037037 109.0
39.475960893 100.0
39.480884749 106.0
39.485808605 95.0
39.490732461 125.0
39.495656317 116.0
39.500580173 100.0
39.505504029 100.0
39.510427885 112.0
39.515351741 101.0
39.520275597 113.0
39.525199453 100.0
39.530123309 104.0
39.535047165 93.0
39.539971021 92.0
39.544894877 103.0
39.549818733 99.0
39.554742589 96.0
39.559666445 99.0
39.564590301 90.0
39.569514157 81.0
39.574438013 105.0
39.579361869 119.0
39.584285725 104.0
39.589209581 109.0
39.594133437 105.0
39.599057293 97.0
39.603981149 110.0
39.608905005 97.0
39.613828861 101.0
39.618752717 108.0
39.623676573 93.0
39.628600429 112.0
39.633524285 105.0
39.638448141 112.0
39.643371997 105.0
39.648295853 107.0
39.653219709 111.0
39.658143565 91.0
39.663067421 111.0
39.667991277 114.0
39.672915133 104.0
39.677838989 94.0
39.682762845 91.0
39.687686701 102.0
39.692610557 100.0
39.697534413 111.0
39.702458269 97.0
39.707382125 110.0
39.712305981 101.0
39.717229837 110.0
39.722153693 109.0
39.727077549 98.0
39.732001405 103.0
39.736925261 89.0
39.741849117 99.0
39.746772973 112.0
39.751696830 108.0
39.756620686 92.0
39.761544542 103.0
39.766468398 98.0
39.771392254 106.0
39.776316110 88.0
39.781239966 118.0
39.786163822 113.0
39.791087678 105.0
39.796011534 97.0
39.800935390 102.0
39.805859246 102.0
39.810783102 106.0
39.815706958 110.0
39.820630814 107.0
39.825554670 101.0
39.830478526 93.0
39.835402382 94.0
39.840326238 103.0
39.845250094 106.0
39.850173950 96.0
39.855097806 97.0
39.860021662 94.0
39.864945518 109.0
39.869869374 114.0
39.874793230 116.0
39.879717086 91.0
39.884640942 91.0
39.889564798 100.0
39.894488654 98.0
39.899412510 78.0
39.904336366 105.0
39.909260222 121.0
39.914184078 78.0
39.919107934 97.0
39.924031790 103.0
39.928955646 89.0
39.933879502 97.0
39.938803358 83.0
39.943727214 119.0
39.948651070 92.0
39.953574926 102.0
39.958498782 90.0
39.963422638 92.0
39.968346494 99.0
39.973270350 102.0
39.978194206 86.0
39.983118062 111.0
39.988041918 101.0
39.992965774 90.0
39.997889630 90.0
