30.002461930 47.0
30.007385786 52.0
30.012309642 52.0
30.017233498 46.0
30.022157354 45.0
30.027081210 48.0
30.032005066 41.0
30.036928922 42.0
30.041852778 45.0
30.046776634 53.0
30.051700490 48.0
30.056624346 58.0
30.061548202 43.0
30.066472058 54.0
30.071395914 43.0
30.076319770 40.0
30.081243626 45.0
30.086167482 39.0
30.091091338 43.0
30.096015194 46.0
30.100939050 44.0
30.105862906 42.0
30.110786762 40.0
30.115710618 37.0
30.120634474 40.0
30.125558330 36.0
30.130482186 48.0
30.135406042 60.0
30.140329898 48.0
30.145253754 48.0
30.150177610 32.0
30.155101466 46.0
30.160025322 43.0
30.164949178 52.0
30.169873034 56.0
30.174796890 50.0
30.179720746 53.0
30.184644602 50.0
30.189568458 48.0
30.194492314 54.0
30.199416170 43.0
30.204340026 49.0
30.209263882 50.0
30.214187738 50.0
30.219111594 49.0
30.224035450 54.0
30.228959306 45.0
30.233883162 44.0
30.238807018 56.0
30.243730874 53.0
30.248654730 57.0
30.253578587 53.0
30.258502443 51.0
30.263426299 58.0
30.268350155 55.0
30.273274011 41.0
30.278197867 56.0
30.283121723 67.0
30.288045579 44.0
30.292969435 44.0
30.297893291 54.0
30.302817147 38.0
30.307741003 51.0
30.312664859 47.0
30.317588715 50.0
30.322512571 44.0
30.327436427 53.0
30.332360283 45.0
30.337284139 44.0
30.342207995 47.0
30.347131851 56.0
30.352055707 48.0
30.356979563 30.0
30.361903419 47.0
30.366827275 40.0
30.371751131 36.0
30.376674987 46.0
30.381598843 48.0
30.386522699 49.0
30.391446555 35.0
30.396370411 53.0
30.401294267 50.0
30.406218123 39.0
30.411141979 55.0
30.416065835 60.0
30.420989691 34.0
30.425913547 49.0
30.430837403 59.0
30.435761259 42.0
30.440685115 39.0
30.445608971 63.0
30.450532827 35.0
30.455456683 39.0
30.460380539 58.0
30.465304395 36.0
30.470228251 52.0
30.475152107 30.0
30.480075963 41.0
30.484999819 54.0
30.489923675 44.0
30.494847531 39.0
30.499771387 58.0
30.504695243 58.0
30.509619099 43.0
30.514542955 59.0
30.519466811 47.0
30.524390667 45.0
30.529314523 54.0
30.534238379 56.0
30.539162235 40.0
30.544086091 47.0
30.549009947 46.0
30.553933803 49.0
30.558857659 41.0
30.563781515 42.0
30.568705371 39.0
30.573629227 36.0
30.578553083 64.0
30.583476939 44.0
30.588400795 47.0
30.593324651 57.0
30.598248507 45.0
30.603172363 50.0
30.608096219 51.0
30.613020075 50.0
30.617943931 42.0
30.622867787 46.0
30.627791643 38.0
30.632715499 49.0
30.637639355 38.0
30.642563211 49.0
30.647487067 52.0
30.652410923 41.0
30.657334779 47.0
30.662258635 49.0
30.667182491 53.0
30.672106347 48.0
30.677030203 47.0
30.681954059 38.0
30.686877915 63.0
30.691801771 43.0
30.696725627 56.0
30.701649483 41.0
30.706573339 41.0
30.711497195 42.0
30.716421051 42.0
30.721344907 43.0
30.726268763 38.0
30.731192619 41.0
30.736116475 49.0
30.741040331 46.0
30.745964187 44.0
30.750888043 30.0
30.755811900 45.0
30.760735756 45.0
30.765659612 52.0
30.770583468 30.0
30.775507324 50.0
30.780431180 63.0
30.785355036 55.0
30.790278892 54.0
30.795202748 41.0
30.800126604 44.0
30.805050460 49.0
30.809974316 40.0
30.814898172 63.0
30.819822028 41.0
30.824745884 48.0
30.829669740 51.0
30.834593596 33.0
30.839517452 48.0
30.844441308 59.0
30.849365164 51.0
30.854289020 46.0
30.859212876 41.0
30.864136732 44.0
30.869060588 43.0
30.873984444 40.0
30.878908300 51.0
30.883832156 51.0
30.888756012 43.0
30.893679868 49.0
30.898603724 46.0
30.903527580 44.0
30.908451436 43.0
30.913375292 51.0
30.918299148 42.0
30.923223004 51.0
30.928146860 62.0
30.933070716 52.0
30.937994572 45.0
30.942918428 52.0
30.947842284 63.0
30.952766140 59.0
30.957689996 44.0
30.962613852 46.0
30.967537708 46.0
30.972461564 49.0
30.977385420 45.0
30.982309276 53.0
30.987233132 51.0
30.992156988 53.0
30.997080844 42.0
31.002004700 43.0
31.006928556 49.0
31.011852412 36.0
31.016776268 51.0
31.021700124 47.0
31.026623980 39.0
31.031547836 42.0
31.036471692 47.0
31.041395548 52.0
31.046319404 50.0
31.051243260 41.0
31.056167116 47.0
31.061090972 44.0
31.066014828 50.0
31.070938684 47.0
31.075862540 51.0
31.080786396 39.0
31.085710252 40.0
31.090634108 44.0
31.095557964 39.0
31.100481820 48.0
31.105405676 48.0
31.110329532 46.0
31.115253388 53.0
31.120177244 48.0
31.125101100 38.0
31.130024956 50.0
31.134948812 51.0
31.139872668 49.0
31.144796524 39.0
31.149720380 51.0
31.154644236 60.0
31.159568092 47.0
31.164491948 37.0
31.169415804 41.0
31.174339660 40.0
31.179263516 38.0
31.184187372 48.0
31.189111228 42.0
31.194035084 44.0
31.198958940 46.0
31.203882796 35.0
31.208806652 50.0
31.213730508 53.0
31.218654364 49.0
31.223578220 52.0
31.228502076 55.0
31.233425932 50.0
31.238349788 56.0
31.243273644 36.0
31.248197500 28.0
31.253121357 51.0
31.258045213 38.0
31.262969069 51.0
31.267892925 42.0
31.272816781 48.0
31.277740637 39.0
31.282664493 50.0
31.287588349 52.0
31.292512205 48.0
31.297436061 38.0
31.302359917 51.0
31.307283773 27.0
31.312207629 48.0
31.317131485 54.0
31.322055341 50.0
31.326979197 58.0
31.331903053 41.0
31.336826909 57.0
31.341750765 55.0
31.346674621 51.0
31.351598477 45.0
31.356522333 45.0
31.361446189 34.0
31.366370045 58.0
31.371293901 45.0
31.376217757 32.0
31.381141613 56.0
31.386065469 43.0
31.390989325 44.0
31.395913181 45.0
31.400837037 45.0
31.405760893 44.0
31.410684749 54.0
31.415608605 45.0
31.420532461 57.0
31.425456317 52.0
31.430380173 53.0
31.435304029 41.0
31.440227885 55.0
31.445151741 45.0
31.450075597 41.0
31.454999453 49.0
31.459923309 57.0
31.464847165 42.0
31.469771021 58.0
31.474694877 40.0
31.479618733 58.0
31.484542589 50.0
31.489466445 55.0
31.494390301 51.0
31.499314157 45.0
31.504238013 38.0
31.509161869 46.0
31.514085725 49.0
31.519009581 40.0
31.523933437 41.0
31.528857293 54.0
31.533781149 56.0
31.538705005 45.0
31.543628861 42.0
31.548552717 61.0
31.553476573 50.0
31.558400429 52.0
31.563324285 41.0
31.568248141 44.0
31.573171997 48.0
31.578095853 41.0
31.583019709 56.0
31.587943565 53.0
31.592867421 40.0
31.597791277 44.0
31.602715133 47.0
31.607638989 61.0
31.612562845 49.0
31.617486701 46.0
31.622410557 47.0
31.627334413 44.0
31.632258269 50.0
31.637182125 39.0
31.642105981 48.0
31.647029837 42.0
31.651953693 53.0
31.656877549 45.0
31.661801405 56.0
31.666725261 44.0
31.671649117 61.0
31.676572973 43.0
31.681496829 40.0
31.686420685 66.0
31.691344541 61.0
31.696268397 47.0
31.701192253 41.0
31.706116109 46.0
31.711039965 46.0
31.715963821 64.0
31.720887677 44.0
31.725811533 48.0
31.730735389 44.0
31.735659245 61.0
31.740583101 51.0
31.745506957 45.0
31.750430813 51.0
31.755354670 57.0
31.760278526 41.0
31.765202382 46.0
31.770126238 47.0
31.775050094 46.0
31.779973950 54.0
31.784897806 43.0
31.789821662 37.0
31.794745518 48.0
31.799669374 64.0
31.804593230 64.0
31.809517086 56.0
31.814440942 52.0
31.819364798 35.0
31.824288654 47.0
31.829212510 44.0
31.834136366 45.0
31.839060222 51.0
31.843984078 42.0
31.848907934 54.0
31.853831790 42.0
31.858755646 53.0
31.863679502 46.0
31.868603358 49.0
31.873527214 47.0
31.878451070 43.0
31.883374926 46.0
31.888298782 46.0
31.893222638 55.0
31.898146494 53.0
31.903070350 31.0
31.907994206 64.0
31.912918062 51.0
31.917841918 45.0
31.922765774 52.0
31.927689630 40.0
31.932613486 53.0
31.937537342 52.0
31.942461198 40.0
31.947385054 57.0
31.952308910 60.0
31.957232766 42.0
31.962156622 48.0
31.967080478 54.0
31.972004334 52.0
31.976928190 47.0
31.981852046 51.0
31.986775902 58.0
31.991699758 59.0
31.996623614 50.0
32.001547470 51.0
32.006471326 46.0
32.011395182 48.0
32.016319038 48.0
32.021242894 54.0
32.026166750 46.0
32.031090606 58.0
32.036014462 58.0
32.040938318 50.0
32.045862174 45.0
32.050786030 54.0
32.055709886 65.0
32.060633742 50.0
32.065557598 50.0
32.070481454 51.0
32.075405310 60.0
32.080329166 66.0
32.085253022 59.0
32.090176878 54.0
32.095100734 45.0
32.100024590 52.0
32.104948446 53.0
32.109872302 46.0
32.114796158 60.0
32.119720014 63.0
32.124643870 51.0
32.129567726 69.0
32.134491582 65.0
32.139415438 65.0
32.144339294 65.0
32.149263150 56.0
32.154187006 66.0
32.159110862 69.0
32.164034718 69.0
32.168958574 103.0
32.173882430 86.0
32.178806286 97.0
32.183730142 107.0
32.188653998 104.0
32.193577854 109.0
32.198501710 128.0
32.203425566 130.0
32.208349422 120.0
32.213273278 128.0
32.218197134 132.0
32.223120990 141.0
32.228044846 125.0
32.232968702 132.0
32.237892558 148.0
32.242816414 110.0
32.247740270 114.0
32.252664127 134.0
32.257587983 103.0
32.262511839 92.0
32.267435695 103.0
32.272359551 94.0
32.277283407 109.0
32.282207263 79.0
32.287131119 78.0
32.292054975 67.0
32.296978831 73.0
32.301902687 87.0
32.306826543 73.0
32.311750399 74.0
32.316674255 58.0
32.321598111 62.0
32.326521967 66.0
32.331445823 66.0
32.336369679 55.0
32.341293535 66.0
32.346217391 71.0
32.351141247 67.0
32.356065103 47.0
32.360988959 73.0
32.365912815 54.0
32.370836671 46.0
32.375760527 67.0
32.380684383 49.0
32.385608239 47.0
32.390532095 70.0
32.395455951 70.0
32.400379807 75.0
32.405303663 63.0
32.410227519 54.0
32.415151375 58.0
32.420075231 62.0
32.424999087 67.0
32.429922943 57.0
32.434846799 45.0
32.439770655 49.0
32.444694511 56.0
32.449618367 38.0
32.454542223 51.0
32.459466079 47.0
32.464389935 55.0
32.469313791 42.0
32.474237647 57.0
32.479161503 53.0
32.484085359 54.0
32.489009215 63.0
32.493933071 40.0
32.498856927 42.0
32.503780783 52.0
32.508704639 50.0
32.513628495 47.0
32.518552351 50.0
32.523476207 40.0
32.528400063 73.0
32.533323919 49.0
32.538247775 37.0
32.543171631 36.0
32.548095487 55.0
32.553019343 50.0
32.557943199 43.0
32.562867055 51.0
32.567790911 58.0
32.572714767 47.0
32.577638623 55.0
32.582562479 44.0
32.587486335 49.0
32.592410191 47.0
32.597334047 46.0
32.602257903 52.0
32.607181759 36.0
32.612105615 59.0
32.617029471 53.0
32.621953327 53.0
32.626877183 52.0
32.631801039 52.0
32.636724895 39.0
32.641648751 43.0
32.646572607 59.0
32.651496463 51.0
32.656420319 48.0
32.661344175 50.0
32.666268031 47.0
32.671191887 43.0
32.676115743 46.0
32.681039599 52.0
32.685963455 47.0
32.690887311 52.0
32.695811167 58.0
32.700735023 52.0
32.705658879 53.0
32.710582735 60.0
32.715506591 55.0
32.720430447 51.0
32.725354303 44.0
32.730278159 48.0
32.735202015 45.0
32.740125871 47.0
32.745049727 53.0
32.749973583 54.0
32.754897440 66.0
32.759821296 47.0
32.764745152 62.0
32.769669008 48.0
32.774592864 44.0
32.779516720 57.0
32.784440576 44.0
32.789364432 41.0
32.794288288 44.0
32.799212144 55.0
32.804136000 43.0
32.809059856 53.0
32.813983712 71.0
32.818907568 58.0
32.823831424 43.0
32.828755280 36.0
32.833679136 44.0
32.838602992 63.0
32.843526848 52.0
32.848450704 55.0
32.853374560 49.0
32.858298416 59.0
32.863222272 61.0
32.868146128 42.0
32.873069984 62.0
32.877993840 56.0
32.882917696 48.0
32.887841552 52.0
32.892765408 67.0
32.897689264 47.0
32.902613120 39.0
32.907536976 56.0
32.912460832 54.0
32.917384688 50.0
32.922308544 50.0
32.927232400 43.0
32.932156256 45.0
32.937080112 47.0
32.942003968 59.0
32.946927824 55.0
32.951851680 48.0
32.956775536 47.0
32.961699392 54.0
32.966623248 56.0
32.971547104 56.0
32.976470960 51.0
32.981394816 61.0
32.986318672 46.0
32.991242528 49.0
32.996166384 44.0
33.001090240 53.0
33.006014096 42.0
33.010937952 45.0
33.015861808 53.0
33.020785664 60.0
33.025709520 44.0
33.030633376 41.0
33.035557232 59.0
33.040481088 51.0
33.045404944 52.0
33.050328800 58.0
33.055252656 47.0
33.060176512 53.0
33.065100368 43.0
33.070024224 41.0
33.074948080 43.0
33.079871936 48.0
33.084795792 57.0
33.089719648 56.0
33.094643504 52.0
33.099567360 49.0
33.104491216 52.0
33.109415072 41.0
33.114338928 55.0
33.119262784 53.0
33.124186640 44.0
33.129110496 53.0
33.134034352 58.0
33.138958208 65.0
33.143882064 54.0
33.148805920 47.0
33.153729776 43.0
33.158653632 51.0
33.163577488 56.0
33.168501344 57.0
33.173425200 58.0
33.178349056 47.0
33.183272912 44.0
33.188196768 50.0
33.193120624 51.0
33.198044480 52.0
33.202968336 50.0
33.207892192 59.0
33.212816048 43.0
33.217739904 51.0
33.222663760 63.0
33.227587616 48.0
33.232511472 58.0
33.237435328 63.0
33.242359184 56.0
33.247283040 43.0
33.252206897 49.0
33.257130753 48.0
33.262054609 51.0
33.266978465 60.0
33.271902321 47.0
33.276826177 55.0
33.281750033 45.0
33.286673889 61.0
33.291597745 39.0
33.296521601 49.0
33.301445457 37.0
33.306369313 56.0
33.311293169 41.0
33.316217025 59.0
33.321140881 50.0
33.326064737 52.0
33.330988593 57.0
33.335912449 65.0
33.340836305 45.0
33.345760161 42.0
33.350684017 51.0
33.355607873 44.0
33.360531729 45.0
33.365455585 38.0
33.370379441 44.0
33.375303297 62.0
33.380227153 51.0
33.385151009 58.0
33.390074865 39.0
33.394998721 54.0
33.399922577 53.0
33.404846433 52.0
33.409770289 39.0
33.414694145 43.0
33.419618001 51.0
33.424541857 46.0
33.429465713 50.0
33.434389569 48.0
33.439313425 56.0
33.444237281 51.0
33.449161137 35.0
33.454084993 49.0
33.459008849 41.0
33.463932705 48.0
33.468856561 41.0
33.473780417 54.0
33.478704273 56.0
33.483628129 57.0
33.488551985 53.0
33.493475841 58.0
33.498399697 43.0
33.503323553 41.0
33.508247409 48.0
33.513171265 48.0
33.518095121 53.0
33.523018977 51.0
33.527942833 56.0
33.532866689 41.0
33.537790545 46.0
33.542714401 50.0
33.547638257 61.0
33.552562113 49.0
33.557485969 52.0
33.562409825 60.0
33.567333681 56.0
33.572257537 62.0
33.577181393 54.0
33.582105249 47.0
33.587029105 66.0
33.591952961 38.0
33.596876817 58.0
33.601800673 48.0
33.606724529 54.0
33.611648385 52.0
33.616572241 55.0
33.621496097 46.0
33.626419953 53.0
33.631343809 54.0
33.636267665 49.0
33.641191521 58.0
33.646115377 55.0
33.651039233 60.0
33.655963089 43.0
33.660886945 58.0
33.665810801 71.0
33.670734657 65.0
33.675658513 72.0
33.680582369 66.0
33.685506225 65.0
33.690430081 68.0
33.695353937 51.0
33.700277793 73.0
33.705201649 74.0
33.710125505 63.0
33.715049361 52.0
33.719973217 57.0
33.724897073 56.0
33.729820929 50.0
33.734744785 60.0
33.739668641 45.0
33.744592497 67.0
33.749516353 60.0
33.754440210 57.0
33.759364066 47.0
33.764287922 52.0
33.769211778 63.0
33.774135634 64.0
33.779059490 64.0
33.783983346 77.0
33.788907202 69.0
33.793831058 58.0
33.798754914 63.0
33.803678770 64.0
33.808602626 47.0
33.813526482 60.0
33.818450338 55.0
33.823374194 56.0
33.828298050 51.0
33.833221906 59.0
33.838145762 50.0
33.843069618 72.0
33.847993474 62.0
33.852917330 66.0
33.857841186 76.0
33.862765042 64.0
33.867688898 71.0
33.872612754 77.0
33.877536610 70.0
33.882460466 74.0
33.887384322 72.0
33.892308178 75.0
33.897232034 88.0
33.902155890 89.0
33.907079746 118.0
33.912003602 142.0
33.916927458 152.0
33.921851314 164.0
33.926775170 306.0
33.931699026 399.0
33.936622882 538.0
33.941546738 638.0
33.946470594 747.0
33.951394450 772.0
33.956318306 754.0
33.961242162 633.0
33.966166018 512.0
33.971089874 418.0
33.976013730 316.0
33.980937586 269.0
33.985861442 163.0
33.990785298 148.0
33.995709154 126.0
34.000633010 119.0
34.005556866 99.0
34.010480722 105.0
34.015404578 81.0
34.020328434 78.0
34.025252290 75.0
34.030176146 74.0
34.035100002 73.0
34.040023858 75.0
34.044947714 74.0
34.049871570 73.0
34.054795426 73.0
34.059719282 77.0
34.064643138 76.0
34.069566994 63.0
34.074490850 74.0
34.079414706 74.0
34.084338562 61.0
34.089262418 66.0
34.094186274 79.0
34.099110130 59.0
34.104033986 60.0
34.108957842 66.0
34.113881698 82.0
34.118805554 67.0
34.123729410 64.0
34.128653266 53.0
34.133577122 56.0
34.138500978 69.0
34.143424834 60.0
34.148348690 57.0
34.153272546 62.0
34.158196402 69.0
34.163120258 75.0
34.168044114 60.0
34.172967970 61.0
34.177891826 71.0
34.182815682 79.0
34.187739538 74.0
34.192663394 59.0
34.197587250 57.0
34.202511106 52.0
34.207434962 57.0
34.212358818 75.0
34.217282674 79.0
34.222206530 58.0
34.227130386 77.0
34.232054242 55.0
34.236978098 62.0
34.241901954 64.0
34.246825810 76.0
34.251749667 65.0
34.256673523 68.0
34.261597379 64.0
34.266521235 58.0
34.271445091 66.0
34.276368947 57.0
34.281292803 58.0
34.286216659 57.0
34.291140515 64.0
34.296064371 77.0
34.300988227 72.0
34.305912083 73.0
34.310835939 68.0
34.315759795 66.0
34.320683651 71.0
34.325607507 73.0
34.330531363 78.0
34.335455219 65.0
34.340379075 67.0
34.345302931 68.0
34.350226787 59.0
34.355150643 71.0
34.360074499 67.0
34.364998355 53.0
34.369922211 66.0
34.374846067 44.0
34.379769923 74.0
34.384693779 53.0
34.389617635 79.0
34.394541491 57.0
34.399465347 67.0
34.404389203 61.0
34.409313059 64.0
34.414236915 57.0
34.419160771 68.0
34.424084627 61.0
34.429008483 57.0
34.433932339 75.0
34.438856195 78.0
34.443780051 59.0
34.448703907 73.0
34.453627763 65.0
34.458551619 50.0
34.463475475 62.0
34.468399331 66.0
34.473323187 85.0
34.478247043 80.0
34.483170899 79.0
34.488094755 62.0
34.493018611 56.0
34.497942467 58.0
34.502866323 73.0
34.507790179 72.0
34.512714035 65.0
34.517637891 69.0
34.522561747 77.0
34.527485603 78.0
34.532409459 71.0
34.537333315 67.0
34.542257171 80.0
34.547181027 61.0
34.552104883 65.0
34.557028739 83.0
34.561952595 66.0
34.566876451 70.0
34.571800307 77.0
34.576724163 97.0
34.581648019 81.0
34.586571875 67.0
34.591495731 76.0
34.596419587 69.0
34.601343443 73.0
34.606267299 73.0
34.611191155 79.0
34.616115011 66.0
34.621038867 79.0
34.625962723 74.0
34.630886579 82.0
34.635810435 73.0
34.640734291 90.0
34.645658147 74.0
34.650582003 85.0
34.655505859 85.0
34.660429715 75.0
34.665353571 84.0
34.670277427 64.0
34.675201283 78.0
34.680125139 96.0
34.685048995 67.0
34.689972851 83.0
34.694896707 77.0
34.699820563 76.0
34.704744419 82.0
34.709668275 86.0
34.714592131 88.0
34.719515987 75.0
34.724439843 95.0
34.729363699 76.0
34.734287555 73.0
34.739211411 74.0
34.744135267 86.0
34.749059123 78.0
34.753982980 70.0
34.758906836 76.0
34.763830692 86.0
34.768754548 91.0
34.773678404 92.0
34.778602260 94.0
34.783526116 91.0
34.788449972 80.0
34.793373828 101.0
34.798297684 97.0
34.803221540 87.0
34.808145396 98.0
34.813069252 105.0
34.817993108 66.0
34.822916964 89.0
34.827840820 100.0
34.832764676 93.0
34.837688532 93.0
34.842612388 86.0
34.847536244 81.0
34.852460100 92.0
34.857383956 103.0
34.862307812 96.0
34.867231668 89.0
34.872155524 99.0
34.877079380 120.0
34.882003236 107.0
34.886927092 100.0
34.891850948 100.0
34.896774804 88.0
34.901698660 106.0
34.906622516 99.0
34.911546372 101.0
34.916470228 99.0
34.921394084 106.0
34.926317940 108.0
34.931241796 95.0
34.936165652 108.0
34.941089508 95.0
34.946013364 113.0
34.950937220 109.0
34.955861076 98.0
34.960784932 92.0
34.965708788 145.0
34.970632644 109.0
34.975556500 122.0
34.980480356 107.0
34.985404212 101.0
34.990328068 125.0
34.995251924 119.0
35.000175780 115.0
35.005099636 111.0
35.010023492 143.0
35.014947348 114.0
35.019871204 133.0
35.024795060 122.0
35.029718916 115.0
35.034642772 129.0
35.039566628 143.0
35.044490484 125.0
35.049414340 123.0
35.054338196 132.0
35.059262052 126.0
35.064185908 133.0
35.069109764 130.0
35.074033620 140.0
35.078957476 154.0
35.083881332 150.0
35.088805188 128.0
35.093729044 148.0
35.098652900 129.0
35.103576756 145.0
35.108500612 131.0
35.113424468 135.0
35.118348324 134.0
35.123272180 145.0
35.128196036 133.0
35.133119892 165.0
35.138043748 130.0
35.142967604 139.0
35.147891460 145.0
35.152815316 166.0
35.157739172 165.0
35.162663028 187.0
35.167586884 176.0
35.172510740 131.0
35.177434596 159.0
35.182358452 136.0
35.187282308 154.0
35.192206164 156.0
35.197130020 151.0
35.202053876 196.0
35.206977732 187.0
35.211901588 148.0
35.216825444 165.0
35.221749300 169.0
35.226673156 184.0
35.231597012 178.0
35.236520868 190.0
35.241444724 188.0
35.246368580 195.0
35.251292437 192.0
35.256216293 192.0
35.261140149 222.0
35.266064005 196.0
35.270987861 193.0
35.275911717 209.0
35.280835573 188.0
35.285759429 171.0
35.290683285 211.0
35.295607141 244.0
35.300530997 216.0
35.305454853 213.0
35.310378709 209.0
35.315302565 235.0
35.320226421 202.0
35.325150277 212.0
35.330074133 215.0
35.334997989 233.0
35.339921845 274.0
35.344845701 257.0
35.349769557 276.0
35.354693413 221.0
35.359617269 233.0
35.364541125 242.0
35.369464981 233.0
35.374388837 276.0
35.379312693 255.0
35.384236549 269.0
35.389160405 295.0
35.394084261 275.0
35.399008117 322.0
35.403931973 355.0
35.408855829 320.0
35.413779685 325.0
35.418703541 321.0
35.423627397 350.0
35.428551253 356.0
35.433475109 329.0
35.438398965 354.0
35.443322821 342.0
35.448246677 378.0
35.453170533 379.0
35.458094389 360.0
35.463018245 440.0
35.467942101 447.0
35.472865957 435.0
35.477789813 465.0
35.482713669 457.0
35.487637525 470.0
35.492561381 467.0
35.497485237 476.0
35.502409093 558.0
35.507332949 549.0
35.512256805 532.0
35.517180661 626.0
35.522104517 632.0
35.527028373 649.0
35.531952229 648.0
35.536876085 700.0
35.541799941 787.0
35.546723797 760.0
35.551647653 788.0
35.556571509 855.0
35.561495365 878.0
35.566419221 949.0
35.571343077 960.0
35.576266933 1050.0
35.581190789 1119.0
35.586114645 1112.0
35.591038501 1154.0
35.595962357 1264.0
35.600886213 1343.0
35.605810069 1430.0
35.610733925 1549.0
35.615657781 1586.0
35.620581637 1764.0
35.625505493 1842.0
35.630429349 1931.0
35.635353205 2135.0
35.640277061 2241.0
35.645200917 2370.0
35.650124773 2539.0
35.655048629 2742.0
35.659972485 3032.0
35.664896341 3232.0
35.669820197 3485.0
35.674744053 3822.0
35.679667909 4190.0
35.684591765 4626.0
35.689515621 5156.0
35.694439477 5844.0
35.699363333 6501.0
35.704287189 7132.0
35.709211045 8046.0
35.714134901 9046.0
35.719058757 10322.0
35.723982613 11419.0
35.728906469 12863.0
35.733830325 14521.0
35.738754181 15887.0
35.743678037 17991.0
35.748601893 19543.0
35.753525750 20975.0
35.758449606 22611.0
35.763373462 23888.0
35.768297318 24924.0
35.773221174 25210.0
35.778145030 25379.0
35.783068886 25629.0
35.787992742 25252.0
35.792916598 24557.0
35.797840454 23280.0
35.802764310 22555.0
35.807688166 21831.0
35.812612022 20952.0
35.817535878 19942.0
35.822459734 19191.0
35.827383590 19186.0
35.832307446 18463.0
35.837231302 18559.0
35.842155158 18385.0
35.847079014 18163.0
35.852002870 18249.0
35.856926726 17729.0
35.861850582 17666.0
35.866774438 17439.0
35.871698294 16749.0
35.876622150 16329.0
35.881546006 15497.0
35.886469862 14639.0
35.891393718 13734.0
35.896317574 12824.0
35.901241430 12044.0
35.906165286 10846.0
35.911089142 9934.0
35.916012998 9171.0
35.920936854 8275.0
35.925860710 7688.0
35.930784566 7067.0
35.935708422 6447.0
35.940632278 5955.0
35.945556134 5596.0
35.950479990 5075.0
35.955403846 4546.0
35.960327702 4334.0
35.965251558 3994.0
35.970175414 3790.0
35.975099270 3525.0
35.980023126 3215.0
35.984946982 3030.0
35.989870838 2956.0
35.994794694 2703.0
35.999718550 2477.0
36.004642406 2331.0
36.009566262 2276.0
36.014490118 2105.0
36.019413974 2035.0
36.024337830 1879.0
36.029261686 1735.0
36.034185542 1726.0
36.039109398 1616.0
36.044033254 1574.0
36.048957110 1526.0
36.053880966 1504.0
36.058804822 1343.0
36.063728678 1253.0
36.068652534 1208.0
36.073576390 1300.0
36.078500246 1108.0
36.083424102 1103.0
36.088347958 1118.0
36.093271814 1035.0
36.098195670 1039.0
36.103119526 969.0
36.108043382 997.0
36.112967238 921.0
36.117891094 889.0
36.122814950 787.0
36.127738806 768.0
36.132662662 762.0
36.137586518 827.0
36.142510374 698.0
36.147434230 718.0
36.152358086 654.0
36.157281942 640.0
36.162205798 635.0
36.167129654 640.0
36.172053510 595.0
36.176977366 593.0
36.181901222 571.0
36.186825078 566.0
36.191748934 526.0
36.196672790 536.0
36.201596646 520.0
36.206520502 514.0
36.211444358 481.0
36.216368214 432.0
36.221292070 457.0
36.226215926 482.0
36.231139782 478.0
36.236063638 422.0
36.240987494 449.0
36.245911350 436.0
36.250835207 409.0
36.255759063 396.0
36.260682919 412.0
36.265606775 390.0
36.270530631 422.0
36.275454487 344.0
36.280378343 368.0
36.285302199 387.0
36.290226055 384.0
36.295149911 354.0
36.300073767 316.0
36.304997623 304.0
36.309921479 307.0
36.314845335 335.0
36.319769191 291.0
36.324693047 319.0
36.329616903 288.0
36.334540759 327.0
36.339464615 280.0
36.344388471 304.0
36.349312327 281.0
36.354236183 274.0
36.359160039 241.0
36.364083895 289.0
36.369007751 278.0
36.373931607 270.0
36.378855463 236.0
36.383779319 239.0
36.388703175 235.0
36.393627031 274.0
36.398550887 275.0
36.403474743 259.0
36.408398599 223.0
36.413322455 257.0
36.418246311 233.0
36.423170167 211.0
36.428094023 234.0
36.433017879 222.0
36.437941735 195.0
36.442865591 228.0
36.447789447 190.0
36.452713303 190.0
36.457637159 189.0
36.462561015 198.0
36.467484871 201.0
36.472408727 197.0
36.477332583 200.0
36.482256439 189.0
36.487180295 178.0
36.492104151 195.0
36.497028007 198.0
36.501951863 178.0
36.506875719 190.0
36.511799575 213.0
36.516723431 204.0
36.521647287 183.0
36.526571143 196.0
36.531494999 187.0
36.536418855 187.0
36.541342711 194.0
36.546266567 201.0
36.551190423 186.0
36.556114279 153.0
36.561038135 163.0
36.565961991 179.0
36.570885847 177.0
36.575809703 174.0
36.580733559 160.0
36.585657415 160.0
36.590581271 169.0
36.595505127 164.0
36.600428983 161.0
36.605352839 154.0
36.610276695 174.0
36.615200551 188.0
36.620124407 153.0
36.625048263 174.0
36.629972119 165.0
36.634895975 155.0
36.639819831 179.0
36.644743687 164.0
36.649667543 153.0
36.654591399 159.0
36.659515255 169.0
36.664439111 170.0
36.669362967 172.0
36.674286823 162.0
36.679210679 152.0
36.684134535 187.0
36.689058391 139.0
36.693982247 168.0
36.698906103 161.0
36.703829959 168.0
36.708753815 149.0
36.713677671 168.0
36.718601527 176.0
36.723525383 158.0
36.728449239 159.0
36.733373095 188.0
36.738296951 164.0
36.743220807 172.0
36.748144663 167.0
36.753068520 176.0
36.757992376 176.0
36.762916232 150.0
36.767840088 170.0
36.772763944 152.0
36.777687800 181.0
36.782611656 176.0
36.787535512 165.0
36.792459368 164.0
36.797383224 161.0
36.802307080 156.0
36.807230936 177.0
36.812154792 172.0
36.817078648 174.0
36.822002504 168.0
36.826926360 172.0
36.831850216 178.0
36.836774072 184.0
36.841697928 173.0
36.846621784 160.0
36.851545640 183.0
36.856469496 147.0
36.861393352 189.0
36.866317208 171.0
36.871241064 165.0
36.876164920 188.0
36.881088776 175.0
36.886012632 163.0
36.890936488 184.0
36.895860344 182.0
36.900784200 177.0
36.905708056 185.0
36.910631912 187.0
36.915555768 205.0
36.920479624 150.0
36.925403480 151.0
36.930327336 176.0
36.935251192 197.0
36.940175048 186.0
36.945098904 178.0
36.950022760 258.0
36.954946616 198.0
36.959870472 175.0
36.964794328 192.0
36.969718184 186.0
36.974642040 207.0
36.979565896 268.0
36.984489752 210.0
36.989413608 204.0
36.994337464 197.0
36.999261320 255.0
37.004185176 206.0
37.009109032 206.0
37.014032888 190.0
37.018956744 216.0
37.023880600 210.0
37.028804456 206.0
37.033728312 267.0
37.038652168 195.0
37.043576024 209.0
37.048499880 200.0
37.053423736 209.0
37.058347592 214.0
37.063271448 215.0
37.068195304 281.0
37.073119160 198.0
37.078043016 255.0
37.082966872 214.0
37.087890728 213.0
37.092814584 212.0
37.097738440 208.0
37.102662296 295.0
37.107586152 274.0
37.112510008 265.0
37.117433864 220.0
37.122357720 276.0
37.127281576 291.0
37.132205432 291.0
37.137129288 298.0
37.142053144 303.0
37.146977000 261.0
37.151900856 286.0
37.156824712 267.0
37.161748568 325.0
37.166672424 276.0
37.171596280 282.0
37.176520136 290.0
37.181443992 293.0
37.186367848 271.0
37.191291704 302.0
37.196215560 320.0
37.201139416 301.0
37.206063272 326.0
37.210987128 334.0
37.215910984 308.0
37.220834840 331.0
37.225758696 301.0
37.230682552 312.0
37.235606408 323.0
37.240530264 350.0
37.245454120 330.0
37.250377977 345.0
37.255301833 367.0
37.260225689 328.0
37.265149545 337.0
37.270073401 350.0
37.274997257 356.0
37.279921113 346.0
37.284844969 339.0
37.289768825 387.0
37.294692681 445.0
37.299616537 432.0
37.304540393 399.0
37.309464249 422.0
37.314388105 379.0
37.319311961 431.0
37.324235817 410.0
37.329159673 454.0
37.334083529 431.0
37.339007385 400.0
37.343931241 458.0
37.348855097 473.0
37.353778953 468.0
37.358702809 443.0
37.363626665 456.0
37.368550521 469.0
37.373474377 512.0
37.378398233 538.0
37.383322089 532.0
37.388245945 508.0
37.393169801 552.0
37.398093657 542.0
37.403017513 557.0
37.407941369 574.0
37.412865225 586.0
37.417789081 553.0
37.422712937 624.0
37.427636793 616.0
37.432560649 618.0
37.437484505 635.0
37.442408361 677.0
37.447332217 667.0
37.452256073 651.0
37.457179929 685.0
37.462103785 763.0
37.467027641 758.0
37.471951497 798.0
37.476875353 893.0
37.481799209 920.0
37.486723065 925.0
37.491646921 1109.0
37.496570777 1113.0
37.501494633 1296.0
37.506418489 1463.0
37.511342345 1551.0
37.516266201 1666.0
37.521190057 1901.0
37.526113913 2073.0
37.531037769 2164.0
37.535961625 2283.0
37.540885481 2259.0
37.545809337 2380.0
37.550733193 2441.0
37.555657049 2305.0
37.560580905 2356.0
37.565504761 2337.0
37.570428617 2287.0
37.575352473 2191.0
37.580276329 2316.0
37.585200185 2273.0
37.590124041 2336.0
37.595047897 2360.0
37.599971753 2440.0
37.604895609 2618.0
37.609819465 2714.0
37.614743321 3016.0
37.619667177 3211.0
37.624591033 3512.0
37.629514889 4076.0
37.634438745 4591.0
37.639362601 5242.0
37.644286457 6179.0
37.649210313 7210.0
37.654134169 8722.0
37.659058025 10579.0
37.663981881 13292.0
37.668905737 17259.0
37.673829593 23963.0
37.678753449 35597.0
37.683677305 58768.0
37.688601161 100237.0
37.693525017 157956.0
37.698448873 205032.0
37.703372729 227197.0
37.708296585 233239.0
37.713220441 221409.0
37.718144297 189852.0
37.723068153 136249.0
37.727992009 88367.0
37.732915865 55677.0
37.737839721 37010.0
37.742763577 25674.0
37.747687433 19526.0
37.752611290 16180.0
37.757535146 14540.0
37.762459002 14383.0
37.767382858 15522.0
37.772306714 18778.0
37.777230570 26184.0
37.782154426 38140.0
37.787078282 60191.0
37.792002138 84885.0
37.796925994 105793.0
37.801849850 115579.0
37.806773706 115877.0
37.811697562 107609.0
37.816621418 89045.0
37.821545274 66407.0
37.826469130 43046.0
37.831392986 28246.0
37.836316842 18795.0
37.841240698 13362.0
37.846164554 9749.0
37.851088410 7489.0
37.856012266 6092.0
37.860936122 5189.0
37.865859978 4462.0
37.870783834 3914.0
37.875707690 3523.0
37.880631546 3169.0
37.885555402 2804.0
37.890479258 2630.0
37.895403114 2348.0
37.900326970 2242.0
37.905250826 2144.0
37.910174682 1947.0
37.915098538 1817.0
37.920022394 1656.0
37.924946250 1656.0
37.929870106 1565.0
37.934793962 1476.0
37.939717818 1310.0
37.944641674 1306.0
37.949565530 1295.0
37.954489386 1212.0
37.959413242 1190.0
37.964337098 1118.0
37.969260954 1036.0
37.974184810 1030.0
37.979108666 977.0
37.984032522 907.0
37.988956378 898.0
37.993880234 891.0
37.998804090 802.0
38.003727946 823.0
38.008651802 797.0
38.013575658 753.0
38.018499514 743.0
38.023423370 720.0
38.028347226 719.0
38.033271082 659.0
38.038194938 643.0
38.043118794 684.0
38.048042650 648.0
38.052966506 621.0
38.057890362 600.0
38.062814218 593.0
38.067738074 597.0
38.072661930 594.0
38.077585786 546.0
38.082509642 541.0
38.087433498 534.0
38.092357354 549.0
38.097281210 496.0
38.102205066 485.0
38.107128922 471.0
38.112052778 495.0
38.116976634 508.0
38.121900490 470.0
38.126824346 454.0
38.131748202 427.0
38.136672058 446.0
38.141595914 414.0
38.146519770 414.0
38.151443626 387.0
38.156367482 438.0
38.161291338 409.0
38.166215194 380.0
38.171139050 351.0
38.176062906 400.0
38.180986762 355.0
38.185910618 352.0
38.190834474 366.0
38.195758330 374.0
38.200682186 329.0
38.205606042 365.0
38.210529898 311.0
38.215453754 378.0
38.220377610 318.0
38.225301466 323.0
38.230225322 324.0
38.235149178 294.0
38.240073034 319.0
38.244996890 321.0
38.249920747 280.0
38.254844603 287.0
38.259768459 279.0
38.264692315 208.0
38.269616171 290.0
38.274540027 277.0
38.279463883 276.0
38.284387739 293.0
38.289311595 272.0
38.294235451 271.0
38.299159307 204.0
38.304083163 257.0
38.309007019 209.0
38.313930875 190.0
38.318854731 190.0
38.323778587 186.0
38.328702443 173.0
38.333626299 194.0
38.338550155 160.0
38.343474011 201.0
38.348397867 167.0
38.353321723 164.0
38.358245579 185.0
38.363169435 171.0
38.368093291 163.0
38.373017147 179.0
38.377941003 169.0
38.382864859 158.0
38.387788715 147.0
38.392712571 163.0
38.397636427 170.0
38.402560283 131.0
38.407484139 132.0
38.412407995 152.0
38.417331851 163.0
38.422255707 139.0
38.427179563 154.0
38.432103419 147.0
38.437027275 143.0
38.441951131 132.0
38.446874987 164.0
38.451798843 148.0
38.456722699 137.0
38.461646555 99.0
38.466570411 135.0
38.471494267 119.0
38.476418123 134.0
38.481341979 116.0
38.486265835 148.0
38.491189691 134.0
38.496113547 145.0
38.501037403 129.0
38.505961259 130.0
38.510885115 119.0
38.515808971 113.0
38.520732827 120.0
38.525656683 124.0
38.530580539 119.0
38.535504395 100.0
38.540428251 111.0
38.545352107 111.0
38.550275963 113.0
38.555199819 95.0
38.560123675 115.0
38.565047531 106.0
38.569971387 118.0
38.574895243 94.0
38.579819099 120.0
38.584742955 91.0
38.589666811 116.0
38.594590667 108.0
38.599514523 110.0
38.604438379 110.0
38.609362235 111.0
38.614286091 114.0
38.619209947 106.0
38.624133803 100.0
38.629057659 127.0
38.633981515 116.0
38.638905371 94.0
38.643829227 90.0
38.648753083 97.0
38.653676939 109.0
38.658600795 92.0
38.663524651 78.0
38.668448507 111.0
38.673372363 106.0
38.678296219 93.0
38.683220075 84.0
38.688143931 84.0
38.693067787 74.0
38.697991643 95.0
38.702915499 78.0
38.707839355 97.0
38.712763211 91.0
38.717687067 103.0
38.722610923 98.0
38.727534779 80.0
38.732458635 95.0
38.737382491 97.0
38.742306347 87.0
38.747230203 80.0
38.752154060 86.0
38.757077916 80.0
38.762001772 85.0
38.766925628 79.0
38.771849484 87.0
38.776773340 80.0
38.781697196 73.0
38.786621052 102.0
38.791544908 91.0
38.796468764 78.0
38.801392620 77.0
38.806316476 67.0
38.811240332 77.0
38.816164188 77.0
38.821088044 108.0
38.826011900 78.0
38.830935756 66.0
38.835859612 83.0
38.840783468 100.0
38.845707324 74.0
38.850631180 74.0
38.855555036 76.0
38.860478892 92.0
38.865402748 88.0
38.870326604 77.0
38.875250460 81.0
38.880174316 66.0
38.885098172 82.0
38.890022028 76.0
38.894945884 75.0
38.899869740 79.0
38.904793596 69.0
38.909717452 103.0
38.914641308 85.0
38.919565164 81.0
38.924489020 76.0
38.929412876 80.0
38.934336732 56.0
38.939260588 88.0
38.944184444 67.0
38.949108300 73.0
38.954032156 78.0
38.958956012 77.0
38.963879868 88.0
38.968803724 80.0
38.973727580 78.0
38.978651436 83.0
38.983575292 68.0
38.988499148 72.0
38.993423004 70.0
38.998346860 80.0
39.003270716 77.0
39.008194572 71.0
39.013118428 75.0
39.018042284 70.0
39.022966140 80.0
39.027889996 71.0
39.032813852 67.0
39.037737708 78.0
39.042661564 72.0
39.047585420 65.0
39.052509276 67.0
39.057433132 70.0
39.062356988 72.0
39.067280844 65.0
39.072204700 64.0
39.077128556 80.0
39.082052412 64.0
39.086976268 64.0
39.091900124 84.0
39.096823980 66.0
39.101747836 60.0
39.106671692 64.0
39.111595548 71.0
39.116519404 53.0
39.121443260 60.0
39.126367116 77.0
39.131290972 65.0
39.136214828 60.0
39.141138684 81.0
39.146062540 82.0
39.150986396 76.0
39.155910252 49.0
39.160834108 60.0
39.165757964 69.0
39.170681820 69.0
39.175605676 75.0
39.180529532 76.0
39.185453388 66.0
39.190377244 68.0
39.195301100 61.0
39.200224956 57.0
39.205148812 68.0
39.210072668 71.0
39.214996524 69.0
39.219920380 60.0
39.224844236 71.0
39.229768092 59.0
39.234691948 60.0
39.239615804 68.0
39.244539660 57.0
39.249463517 61.0
39.254387373 63.0
39.259311229 56.0
39.264235085 68.0
39.269158941 61.0
39.274082797 57.0
39.279006653 55.0
39.283930509 50.0
39.288854365 68.0
39.293778221 67.0
39.298702077 66.0
39.303625933 55.0
39.308549789 60.0
39.313473645 58.0
39.318397501 49.0
39.323321357 59.0
39.328245213 65.0
39.333169069 48.0
39.338092925 49.0
39.343016781 52.0
39.347940637 65.0
39.352864493 60.0
39.357788349 52.0
39.362712205 56.0
39.367636061 62.0
39.372559917 60.0
39.377483773 72.0
39.382407629 62.0
39.387331485 59.0
39.392255341 61.0
39.397179197 69.0
39.402103053 62.0
39.407026909 54.0
39.411950765 56.0
39.416874621 67.0
39.421798477 73.0
39.426722333 39.0
39.431646189 72.0
39.436570045 62.0
39.441493901 42.0
39.446417757 70.0
39.451341613 58.0
39.456265469 59.0
39.461189325 55.0
39.466113181 57.0
39.471037037 58.0
39.475960893 49.0
39.480884749 53.0
39.485808605 48.0
39.490732461 67.0
39.495656317 56.0
39.500580173 67.0
39.505504029 60.0
39.510427885 71.0
39.515351741 70.0
39.520275597 60.0
39.525199453 68.0
39.530123309 72.0
39.535047165 43.0
39.539971021 51.0
39.544894877 54.0
39.549818733 44.0
39.554742589 51.0
39.559666445 67.0
39.564590301 63.0
39.569514157 63.0
39.574438013 54.0
39.579361869 58.0
39.584285725 54.0
39.589209581 65.0
39.594133437 48.0
39.599057293 59.0
39.603981149 66.0
39.608905005 72.0
39.613828861 68.0
39.618752717 65.0
39.623676573 58.0
39.628600429 46.0
39.633524285 61.0
39.638448141 47.0
39.643371997 61.0
39.648295853 52.0
39.653219709 43.0
39.658143565 48.0
39.663067421 58.0
39.667991277 55.0
39.672915133 61.0
39.677838989 46.0
39.682762845 55.0
39.687686701 67.0
39.692610557 52.0
39.697534413 48.0
39.702458269 61.0
39.707382125 57.0
39.712305981 56.0
39.717229837 68.0
39.722153693 63.0
39.727077549 59.0
39.732001405 55.0
39.736925261 53.0
39.741849117 59.0
39.746772973 52.0
39.751696830 49.0
39.756620686 55.0
39.761544542 71.0
39.766468398 54.0
39.771392254 63.0
39.776316110 53.0
39.781239966 56.0
39.786163822 66.0
39.791087678 61.0
39.796011534 43.0
39.800935390 61.0
39.805859246 54.0
39.810783102 41.0
39.815706958 44.0
39.820630814 50.0
39.825554670 61.0
39.830478526 61.0
39.835402382 72.0
39.840326238 32.0
39.845250094 59.0
39.850173950 46.0
39.855097806 53.0
39.860021662 53.0
39.864945518 61.0
39.869869374 68.0
39.874793230 51.0
39.879717086 59.0
39.884640942 60.0
39.889564798 56.0
39.894488654 41.0
39.899412510 55.0
39.904336366 46.0
39.909260222 64.0
39.914184078 67.0
39.919107934 62.0
39.924031790 48.0
39.928955646 62.0
39.933879502 66.0
39.938803358 55.0
39.943727214 58.0
39.948651070 60.0
39.953574926 53.0
39.958498782 68.0
39.963422638 70.0
39.968346494 65.0
39.973270350 68.0
39.978194206 56.0
39.983118062 46.0
39.988041918 58.0
39.992965774 47.0
39.997889630 57.0
