35.002061930 62.0
35.006985786 64.0
35.011909642 44.0
35.016833498 62.0
35.021757354 54.0
35.026681210 56.0
35.031605066 52.0
35.036528922 50.0
35.041452778 50.0
35.046376634 57.0
35.051300490 58.0
35.056224346 44.0
35.061148202 63.0
35.066072058 51.0
35.070995914 46.0
35.075919770 67.0
35.080843626 53.0
35.085767482 60.0
35.090691338 42.0
35.095615194 53.0
35.100539050 58.0
35.105462906 57.0
35.110386762 45.0
35.115310618 45.0
35.120234474 58.0
35.125158330 53.0
35.130082186 54.0
35.135006042 60.0
35.139929898 57.0
35.144853754 53.0
35.149777610 55.0
35.154701466 61.0
35.159625322 59.0
35.164549178 58.0
35.169473034 67.0
35.174396890 47.0
35.179320746 61.0
35.184244602 57.0
35.189168458 41.0
35.194092314 55.0
35.199016170 59.0
35.203940026 58.0
35.208863882 65.0
35.213787738 52.0
35.218711594 49.0
35.223635450 53.0
35.228559306 70.0
35.233483162 57.0
35.238407018 56.0
35.243330874 54.0
35.248254730 53.0
35.253178587 61.0
35.258102443 55.0
35.263026299 56.0
35.267950155 55.0
35.272874011 64.0
35.277797867 53.0
35.282721723 59.0
35.287645579 59.0
35.292569435 62.0
35.297493291 57.0
35.302417147 66.0
35.307341003 48.0
35.312264859 50.0
35.317188715 59.0
35.322112571 46.0
35.327036427 68.0
35.331960283 51.0
35.336884139 67.0
35.341807995 60.0
35.346731851 65.0
35.351655707 53.0
35.356579563 72.0
35.361503419 51.0
35.366427275 47.0
35.371351131 62.0
35.376274987 57.0
35.381198843 61.0
35.386122699 57.0
35.391046555 59.0
35.395970411 57.0
35.400894267 55.0
35.405818123 59.0
35.410741979 64.0
35.415665835 67.0
35.420589691 60.0
35.425513547 62.0
35.430437403 59.0
35.435361259 54.0
35.440285115 69.0
35.445208971 44.0
35.450132827 53.0
35.455056683 74.0
35.459980539 52.0
35.464904395 51.0
35.469828251 71.0
35.474752107 63.0
35.479675963 71.0
35.484599819 71.0
35.489523675 56.0
35.494447531 71.0
35.499371387 51.0
35.504295243 61.0
35.509219099 63.0
35.514142955 52.0
35.519066811 53.0
35.523990667 63.0
35.528914523 65.0
35.533838379 68.0
35.538762235 65.0
35.543686091 58.0
35.548609947 56.0
35.553533803 60.0
35.558457659 57.0
35.563381515 54.0
35.568305371 58.0
35.573229227 72.0
35.578153083 59.0
35.583076939 63.0
35.588000795 68.0
35.592924651 41.0
35.597848507 50.0
35.602772363 66.0
35.607696219 47.0
35.612620075 60.0
35.617543931 63.0
35.622467787 64.0
35.627391643 66.0
35.632315499 67.0
35.637239355 60.0
35.642163211 56.0
35.647087067 64.0
35.652010923 52.0
35.656934779 51.0
35.661858635 58.0
35.666782491 58.0
35.671706347 57.0
35.676630203 58.0
35.681554059 60.0
35.686477915 64.0
35.691401771 66.0
35.696325627 51.0
35.701249483 50.0
35.706173339 64.0
35.711097195 65.0
35.716021051 45.0
35.720944907 39.0
35.725868763 56.0
35.730792619 46.0
35.735716475 57.0
35.740640331 56.0
35.745564187 61.0
35.750488043 56.0
35.755411900 54.0
35.760335756 54.0
35.765259612 47.0
35.770183468 50.0
35.775107324 51.0
35.780031180 54.0
35.784955036 51.0
35.789878892 57.0
35.794802748 50.0
35.799726604 40.0
35.804650460 54.0
35.809574316 70.0
35.814498172 54.0
35.819422028 51.0
35.824345884 53.0
35.829269740 53.0
35.834193596 59.0
35.839117452 61.0
35.844041308 51.0
35.848965164 53.0
35.853889020 44.0
35.858812876 52.0
35.863736732 51.0
35.868660588 49.0
35.873584444 47.0
35.878508300 70.0
35.883432156 59.0
35.888356012 60.0
35.893279868 48.0
35.898203724 69.0
35.903127580 46.0
35.908051436 50.0
35.912975292 56.0
35.917899148 56.0
35.922823004 58.0
35.927746860 45.0
35.932670716 56.0
35.937594572 53.0
35.942518428 57.0
35.947442284 52.0
35.952366140 49.0
35.957289996 51.0
35.962213852 67.0
35.967137708 44.0
35.972061564 75.0
35.976985420 68.0
35.981909276 59.0
35.986833132 63.0
35.991756988 62.0
35.996680844 64.0
36.001604700 50.0
36.006528556 50.0
36.011452412 51.0
36.016376268 44.0
36.021300124 55.0
36.026223980 59.0
36.031147836 63.0
36.036071692 48.0
36.040995548 53.0
36.045919404 54.0
36.050843260 65.0
36.055767116 59.0
36.060690972 56.0
36.065614828 51.0
36.070538684 59.0
36.075462540 70.0
36.080386396 51.0
36.085310252 44.0
36.090234108 55.0
36.095157964 61.0
36.100081820 51.0
36.105005676 71.0
36.109929532 56.0
36.114853388 62.0
36.119777244 55.0
36.124701100 48.0
36.129624956 51.0
36.134548812 56.0
36.139472668 65.0
36.144396524 60.0
36.149320380 56.0
36.154244236 55.0
36.159168092 55.0
36.164091948 51.0
36.169015804 45.0
36.173939660 33.0
36.178863516 60.0
36.183787372 64.0
36.188711228 56.0
36.193635084 75.0
36.198558940 44.0
36.203482796 53.0
36.208406652 62.0
36.213330508 58.0
36.218254364 54.0
36.223178220 62.0
36.228102076 55.0
36.233025932 62.0
36.237949788 56.0
36.242873644 53.0
36.247797500 42.0
36.252721357 55.0
36.257645213 56.0
36.262569069 62.0
36.267492925 47.0
36.272416781 62.0
36.277340637 47.0
36.282264493 53.0
36.287188349 45.0
36.292112205 53.0
36.297036061 51.0
36.301959917 49.0
36.306883773 53.0
36.311807629 46.0
36.316731485 55.0
36.321655341 49.0
36.326579197 62.0
36.331503053 56.0
36.336426909 44.0
36.341350765 64.0
36.346274621 50.0
36.351198477 66.0
36.356122333 46.0
36.361046189 60.0
36.365970045 67.0
36.370893901 45.0
36.375817757 70.0
36.380741613 60.0
36.385665469 74.0
36.390589325 52.0
36.395513181 60.0
36.400437037 58.0
36.405360893 40.0
36.410284749 62.0
36.415208605 59.0
36.420132461 70.0
36.425056317 49.0
36.429980173 56.0
36.434904029 44.0
36.439827885 64.0
36.444751741 65.0
36.449675597 60.0
36.454599453 53.0
36.459523309 65.0
36.464447165 60.0
36.469371021 51.0
36.474294877 63.0
36.479218733 67.0
36.484142589 56.0
36.489066445 50.0
36.493990301 78.0
36.498914157 59.0
36.503838013 44.0
36.508761869 45.0
36.513685725 60.0
36.518609581 60.0
36.523533437 60.0
36.528457293 50.0
36.533381149 49.0
36.538305005 61.0
36.543228861 55.0
36.548152717 49.0
36.553076573 60.0
36.558000429 41.0
36.562924285 48.0
36.567848141 51.0
36.572771997 65.0
36.577695853 56.0
36.582619709 47.0
36.587543565 48.0
36.592467421 55.0
36.597391277 61.0
36.602315133 59.0
36.607238989 66.0
36.612162845 61.0
36.617086701 84.0
36.622010557 70.0
36.626934413 56.0
36.631858269 57.0
36.636782125 55.0
36.641705981 55.0
36.646629837 54.0
36.651553693 47.0
36.656477549 56.0
36.661401405 56.0
36.666325261 58.0
36.671249117 59.0
36.676172973 47.0
36.681096829 52.0
36.686020685 59.0
36.690944541 52.0
36.695868397 61.0
36.700792253 53.0
36.705716109 62.0
36.710639965 64.0
36.715563821 55.0
36.720487677 61.0
36.725411533 48.0
36.730335389 61.0
36.735259245 62.0
36.740183101 62.0
36.745106957 59.0
36.750030813 64.0
36.754954670 49.0
36.759878526 53.0
36.764802382 62.0
36.769726238 74.0
36.774650094 61.0
36.779573950 59.0
36.784497806 56.0
36.789421662 50.0
36.794345518 40.0
36.799269374 63.0
36.804193230 57.0
36.809117086 61.0
36.814040942 59.0
36.818964798 67.0
36.823888654 52.0
36.828812510 62.0
36.833736366 49.0
36.838660222 40.0
36.843584078 53.0
36.848507934 63.0
36.853431790 45.0
36.858355646 53.0
36.863279502 65.0
36.868203358 58.0
36.873127214 70.0
36.878051070 47.0
36.882974926 41.0
36.887898782 54.0
36.892822638 75.0
36.897746494 62.0
36.902670350 55.0
36.907594206 54.0
36.912518062 58.0
36.917441918 60.0
36.922365774 66.0
36.927289630 53.0
36.932213486 49.0
36.937137342 59.0
36.942061198 69.0
36.946985054 61.0
36.951908910 50.0
36.956832766 57.0
36.961756622 57.0
36.966680478 55.0
36.971604334 50.0
36.976528190 63.0
36.981452046 57.0
36.986375902 53.0
36.991299758 69.0
36.996223614 55.0
37.001147470 55.0
37.006071326 69.0
37.010995182 61.0
37.015919038 43.0
37.020842894 68.0
37.025766750 56.0
37.030690606 48.0
37.035614462 48.0
37.040538318 54.0
37.045462174 54.0
37.050386030 51.0
37.055309886 54.0
37.060233742 50.0
37.065157598 55.0
37.070081454 56.0
37.075005310 49.0
37.079929166 66.0
37.084853022 55.0
37.089776878 53.0
37.094700734 57.0
37.099624590 60.0
37.104548446 52.0
37.109472302 57.0
37.114396158 57.0
37.119320014 61.0
37.124243870 72.0
37.129167726 54.0
37.134091582 56.0
37.139015438 55.0
37.143939294 54.0
37.148863150 78.0
37.153787006 62.0
37.158710862 67.0
37.163634718 59.0
37.168558574 54.0
37.173482430 63.0
37.178406286 65.0
37.183330142 56.0
37.188253998 52.0
37.193177854 68.0
37.198101710 53.0
37.203025566 50.0
37.207949422 42.0
37.212873278 62.0
37.217797134 58.0
37.222720990 71.0
37.227644846 70.0
37.232568702 58.0
37.237492558 59.0
37.242416414 62.0
37.247340270 54.0
37.252264127 50.0
37.257187983 58.0
37.262111839 57.0
37.267035695 56.0
37.271959551 60.0
37.276883407 60.0
37.281807263 71.0
37.286731119 65.0
37.291654975 58.0
37.296578831 65.0
37.301502687 67.0
37.306426543 45.0
37.311350399 65.0
37.316274255 61.0
37.321198111 60.0
37.326121967 49.0
37.331045823 68.0
37.335969679 39.0
37.340893535 61.0
37.345817391 72.0
37.350741247 56.0
37.355665103 49.0
37.360588959 55.0
37.365512815 51.0
37.370436671 68.0
37.375360527 63.0
37.380284383 55.0
37.385208239 69.0
37.390132095 58.0
37.395055951 80.0
37.399979807 77.0
37.404903663 88.0
37.409827519 94.0
37.414751375 114.0
37.419675231 151.0
37.424599087 145.0
37.429522943 169.0
37.434446799 153.0
37.439370655 169.0
37.444294511 172.0
37.449218367 156.0
37.454142223 129.0
37.459066079 147.0
37.463989935 95.0
37.468913791 97.0
37.473837647 91.0
37.478761503 85.0
37.483685359 89.0
37.488609215 71.0
37.493533071 68.0
37.498456927 66.0
37.503380783 85.0
37.508304639 77.0
37.513228495 69.0
37.518152351 75.0
37.523076207 62.0
37.528000063 59.0
37.532923919 56.0
37.537847775 58.0
37.542771631 72.0
37.547695487 48.0
37.552619343 62.0
37.557543199 69.0
37.562467055 62.0
37.567390911 68.0
37.572314767 58.0
37.577238623 69.0
37.582162479 67.0
37.587086335 48.0
37.592010191 57.0
37.596934047 71.0
37.601857903 59.0
37.606781759 64.0
37.611705615 53.0
37.616629471 68.0
37.621553327 75.0
37.626477183 57.0
37.631401039 48.0
37.636324895 67.0
37.641248751 56.0
37.646172607 63.0
37.651096463 58.0
37.656020319 60.0
37.660944175 61.0
37.665868031 66.0
37.670791887 54.0
37.675715743 72.0
37.680639599 64.0
37.685563455 71.0
37.690487311 63.0
37.695411167 63.0
37.700335023 68.0
37.705258879 69.0
37.710182735 54.0
37.715106591 45.0
37.720030447 54.0
37.724954303 60.0
37.729878159 56.0
37.734802015 67.0
37.739725871 55.0
37.744649727 63.0
37.749573583 53.0
37.754497440 65.0
37.759421296 68.0
37.764345152 58.0
37.769269008 59.0
37.774192864 62.0
37.779116720 63.0
37.784040576 57.0
37.788964432 55.0
37.793888288 71.0
37.798812144 48.0
37.803736000 48.0
37.808659856 61.0
37.813583712 67.0
37.818507568 59.0
37.823431424 62.0
37.828355280 68.0
37.833279136 63.0
37.838202992 48.0
37.843126848 66.0
37.848050704 49.0
37.852974560 69.0
37.857898416 52.0
37.862822272 61.0
37.867746128 58.0
37.872669984 51.0
37.877593840 45.0
37.882517696 57.0
37.887441552 70.0
37.892365408 50.0
37.897289264 62.0
37.902213120 62.0
37.907136976 55.0
37.912060832 56.0
37.916984688 68.0
37.921908544 61.0
37.926832400 65.0
37.931756256 59.0
37.936680112 76.0
37.941603968 69.0
37.946527824 54.0
37.951451680 75.0
37.956375536 56.0
37.961299392 54.0
37.966223248 67.0
37.971147104 54.0
37.976070960 66.0
37.980994816 74.0
37.985918672 68.0
37.990842528 58.0
37.995766384 73.0
38.000690240 74.0
38.005614096 68.0
38.010537952 73.0
38.015461808 67.0
38.020385664 68.0
38.025309520 72.0
38.030233376 49.0
38.035157232 57.0
38.040081088 76.0
38.045004944 56.0
38.049928800 65.0
38.054852656 71.0
38.059776512 68.0
38.064700368 71.0
38.069624224 66.0
38.074548080 71.0
38.079471936 59.0
38.084395792 64.0
38.089319648 58.0
38.094243504 59.0
38.099167360 65.0
38.104091216 57.0
38.109015072 71.0
38.113938928 60.0
38.118862784 62.0
38.123786640 51.0
38.128710496 56.0
38.133634352 66.0
38.138558208 57.0
38.143482064 71.0
38.148405920 67.0
38.153329776 57.0
38.158253632 61.0
38.163177488 58.0
38.168101344 62.0
38.173025200 57.0
38.177949056 73.0
38.182872912 70.0
38.187796768 60.0
38.192720624 50.0
38.197644480 64.0
38.202568336 69.0
38.207492192 75.0
38.212416048 72.0
38.217339904 65.0
38.222263760 50.0
38.227187616 74.0
38.232111472 75.0
38.237035328 55.0
38.241959184 71.0
38.246883040 64.0
38.251806897 71.0
38.256730753 59.0
38.261654609 75.0
38.266578465 80.0
38.271502321 67.0
38.276426177 71.0
38.281350033 73.0
38.286273889 69.0
38.291197745 65.0
38.296121601 53.0
38.301045457 61.0
38.305969313 71.0
38.310893169 57.0
38.315817025 67.0
38.320740881 65.0
38.325664737 81.0
38.330588593 67.0
38.335512449 60.0
38.340436305 73.0
38.345360161 65.0
38.350284017 61.0
38.355207873 74.0
38.360131729 64.0
38.365055585 54.0
38.369979441 79.0
38.374903297 66.0
38.379827153 66.0
38.384751009 65.0
38.389674865 63.0
38.394598721 57.0
38.399522577 93.0
38.404446433 77.0
38.409370289 70.0
38.414294145 62.0
38.419218001 64.0
38.424141857 54.0
38.429065713 83.0
38.433989569 68.0
38.438913425 58.0
38.443837281 75.0
38.448761137 67.0
38.453684993 64.0
38.458608849 59.0
38.463532705 59.0
38.468456561 66.0
38.473380417 63.0
38.478304273 61.0
38.483228129 61.0
38.488151985 64.0
38.493075841 73.0
38.497999697 62.0
38.502923553 68.0
38.507847409 78.0
38.512771265 72.0
38.517695121 67.0
38.522618977 61.0
38.527542833 73.0
38.532466689 58.0
38.537390545 75.0
38.542314401 57.0
38.547238257 59.0
38.552162113 61.0
38.557085969 75.0
38.562009825 70.0
38.566933681 87.0
38.571857537 65.0
38.576781393 63.0
38.581705249 72.0
38.586629105 81.0
38.591552961 69.0
38.596476817 56.0
38.601400673 66.0
38.606324529 73.0
38.611248385 67.0
38.616172241 59.0
38.621096097 71.0
38.626019953 63.0
38.630943809 74.0
38.635867665 72.0
38.640791521 72.0
38.645715377 83.0
38.650639233 68.0
38.655563089 74.0
38.660486945 86.0
38.665410801 66.0
38.670334657 65.0
38.675258513 59.0
38.680182369 72.0
38.685106225 54.0
38.690030081 73.0
38.694953937 75.0
38.699877793 83.0
38.704801649 70.0
38.709725505 87.0
38.714649361 74.0
38.719573217 86.0
38.724497073 73.0
38.729420929 78.0
38.734344785 59.0
38.739268641 62.0
38.744192497 81.0
38.749116353 69.0
38.754040210 75.0
38.758964066 58.0
38.763887922 91.0
38.768811778 66.0
38.773735634 55.0
38.778659490 89.0
38.783583346 63.0
38.788507202 81.0
38.793431058 68.0
38.798354914 71.0
38.803278770 76.0
38.808202626 67.0
38.813126482 89.0
38.818050338 78.0
38.822974194 82.0
38.827898050 58.0
38.832821906 80.0
38.837745762 73.0
38.842669618 80.0
38.847593474 74.0
38.852517330 104.0
38.857441186 85.0
38.862365042 74.0
38.867288898 77.0
38.872212754 83.0
38.877136610 76.0
38.882060466 84.0
38.886984322 73.0
38.891908178 84.0
38.896832034 100.0
38.901755890 88.0
38.906679746 84.0
38.911603602 82.0
38.916527458 85.0
38.921451314 62.0
38.926375170 85.0
38.931299026 89.0
38.936222882 68.0
38.941146738 92.0
38.946070594 73.0
38.950994450 101.0
38.955918306 107.0
38.960842162 75.0
38.965766018 94.0
38.970689874 97.0
38.975613730 107.0
38.980537586 92.0
38.985461442 100.0
38.990385298 87.0
38.995309154 106.0
39.000233010 95.0
39.005156866 106.0
39.010080722 110.0
39.015004578 100.0
39.019928434 92.0
39.024852290 103.0
39.029776146 121.0
39.034700002 113.0
39.039623858 135.0
39.044547714 131.0
39.049471570 115.0
39.054395426 118.0
39.059319282 123.0
39.064243138 124.0
39.069166994 139.0
39.074090850 146.0
39.079014706 144.0
39.083938562 166.0
39.088862418 149.0
39.093786274 146.0
39.098710130 147.0
39.103633986 168.0
39.108557842 168.0
39.113481698 181.0
39.118405554 161.0
39.123329410 204.0
39.128253266 194.0
39.133177122 190.0
39.138100978 249.0
39.143024834 204.0
39.147948690 202.0
39.152872546 245.0
39.157796402 237.0
39.162720258 261.0
39.167644114 277.0
39.172567970 294.0
39.177491826 262.0
39.182415682 313.0
39.187339538 370.0
39.192263394 344.0
39.197187250 365.0
39.202111106 443.0
39.207034962 488.0
39.211958818 478.0
39.216882674 550.0
39.221806530 564.0
39.226730386 652.0
39.231654242 717.0
39.236578098 817.0
39.241501954 873.0
39.246425810 969.0
39.251349667 1098.0
39.256273523 1200.0
39.261197379 1302.0
39.266121235 1441.0
39.271045091 1518.0
39.275968947 1630.0
39.280892803 1791.0
39.285816659 1894.0
39.290740515 1976.0
39.295664371 2047.0
39.300588227 2147.0
39.305512083 2242.0
39.310435939 2409.0
39.315359795 2415.0
39.320283651 2493.0
39.325207507 2496.0
39.330131363 2579.0
39.335055219 2728.0
39.339979075 2562.0
39.344902931 2638.0
39.349826787 2620.0
39.354750643 2643.0
39.359674499 2599.0
39.364598355 2655.0
39.369522211 2640.0
39.374446067 2647.0
39.379369923 2518.0
39.384293779 2569.0
39.389217635 2562.0
39.394141491 2578.0
39.399065347 2548.0
39.403989203 2485.0
39.408913059 2572.0
39.413836915 2440.0
39.418760771 2492.0
39.423684627 2376.0
39.428608483 2459.0
39.433532339 2454.0
39.438456195 2332.0
39.443380051 2217.0
39.448303907 2122.0
39.453227763 2132.0
39.458151619 2061.0
39.463075475 1958.0
39.467999331 1962.0
39.472923187 1862.0
39.477847043 1784.0
39.482770899 1731.0
39.487694755 1751.0
39.492618611 1659.0
39.497542467 1580.0
39.502466323 1498.0
39.507390179 1576.0
39.512314035 1395.0
39.517237891 1413.0
39.522161747 1365.0
39.527085603 1295.0
39.532009459 1255.0
39.536933315 1220.0
39.541857171 1137.0
39.546781027 1116.0
39.551704883 1098.0
39.556628739 1079.0
39.561552595 1023.0
39.566476451 1008.0
39.571400307 893.0
39.576324163 919.0
39.581248019 890.0
39.586171875 906.0
39.591095731 838.0
39.596019587 774.0
39.600943443 806.0
39.605867299 771.0
39.610791155 710.0
39.615715011 733.0
39.620638867 729.0
39.625562723 645.0
39.630486579 669.0
39.635410435 640.0
39.640334291 646.0
39.645258147 609.0
39.650182003 577.0
39.655105859 546.0
39.660029715 540.0
39.664953571 550.0
39.669877427 519.0
39.674801283 498.0
39.679725139 433.0
39.684648995 491.0
39.689572851 433.0
39.694496707 439.0
39.699420563 443.0
39.704344419 459.0
39.709268275 417.0
39.714192131 396.0
39.719115987 414.0
39.724039843 376.0
39.728963699 355.0
39.733887555 341.0
39.738811411 334.0
39.743735267 320.0
39.748659123 367.0
39.753582980 291.0
39.758506836 308.0
39.763430692 304.0
39.768354548 284.0
39.773278404 280.0
39.778202260 280.0
39.783126116 286.0
39.788049972 226.0
39.792973828 221.0
39.797897684 271.0
39.802821540 240.0
39.807745396 232.0
39.812669252 215.0
39.817593108 222.0
39.822516964 198.0
39.827440820 200.0
39.832364676 195.0
39.837288532 201.0
39.842212388 211.0
39.847136244 201.0
39.852060100 185.0
39.856983956 183.0
39.861907812 179.0
39.866831668 169.0
39.871755524 187.0
39.876679380 139.0
39.881603236 182.0
39.886527092 178.0
39.891450948 147.0
39.896374804 146.0
39.901298660 143.0
39.906222516 132.0
39.911146372 155.0
39.916070228 142.0
39.920994084 130.0
39.925917940 141.0
39.930841796 158.0
39.935765652 123.0
39.940689508 130.0
39.945613364 133.0
39.950537220 113.0
39.955461076 118.0
39.960384932 133.0
39.965308788 120.0
39.970232644 119.0
39.975156500 122.0
39.980080356 130.0
39.985004212 122.0
39.989928068 129.0
39.994851924 126.0
39.999775780 114.0
40.004699636 120.0
40.009623492 110.0
40.014547348 109.0
40.019471204 92.0
40.024395060 98.0
40.029318916 114.0
40.034242772 118.0
40.039166628 107.0
40.044090484 107.0
40.049014340 108.0
40.053938196 111.0
40.058862052 89.0
40.063785908 90.0
40.068709764 99.0
40.073633620 96.0
40.078557476 105.0
40.083481332 95.0
40.088405188 100.0
40.093329044 91.0
40.098252900 97.0
40.103176756 86.0
40.108100612 87.0
40.113024468 80.0
40.117948324 87.0
40.122872180 80.0
40.127796036 102.0
40.132719892 84.0
40.137643748 111.0
40.142567604 97.0
40.147491460 79.0
40.152415316 77.0
40.157339172 88.0
40.162263028 90.0
40.167186884 82.0
40.172110740 97.0
40.177034596 70.0
40.181958452 90.0
40.186882308 89.0
40.191806164 77.0
40.196730020 80.0
40.201653876 60.0
40.206577732 72.0
40.211501588 74.0
40.216425444 85.0
40.221349300 86.0
40.226273156 75.0
40.231197012 88.0
40.236120868 51.0
40.241044724 79.0
40.245968580 76.0
40.250892437 73.0
40.255816293 68.0
40.260740149 90.0
40.265664005 90.0
40.270587861 84.0
40.275511717 82.0
40.280435573 85.0
40.285359429 89.0
40.290283285 80.0
40.295207141 67.0
40.300130997 86.0
40.305054853 74.0
40.309978709 82.0
40.314902565 77.0
40.319826421 75.0
40.324750277 79.0
40.329674133 80.0
40.334597989 78.0
40.339521845 74.0
40.344445701 82.0
40.349369557 65.0
40.354293413 69.0
40.359217269 74.0
40.364141125 77.0
40.369064981 71.0
40.373988837 79.0
40.378912693 83.0
40.383836549 71.0
40.388760405 68.0
40.393684261 75.0
40.398608117 77.0
40.403531973 67.0
40.408455829 83.0
40.413379685 64.0
40.418303541 84.0
40.423227397 91.0
40.428151253 65.0
40.433075109 80.0
40.437998965 69.0
40.442922821 77.0
40.447846677 71.0
40.452770533 91.0
40.457694389 72.0
40.462618245 87.0
40.467542101 67.0
40.472465957 75.0
40.477389813 57.0
40.482313669 62.0
40.487237525 78.0
40.492161381 91.0
40.497085237 57.0
40.502009093 65.0
40.506932949 76.0
40.511856805 88.0
40.516780661 76.0
40.521704517 84.0
40.526628373 57.0
40.531552229 83.0
40.536476085 70.0
40.541399941 62.0
40.546323797 72.0
40.551247653 71.0
40.556171509 87.0
40.561095365 79.0
40.566019221 85.0
40.570943077 82.0
40.575866933 68.0
40.580790789 69.0
40.585714645 72.0
40.590638501 71.0
40.595562357 76.0
40.600486213 75.0
40.605410069 91.0
40.610333925 79.0
40.615257781 76.0
40.620181637 75.0
40.625105493 72.0
40.630029349 90.0
40.634953205 93.0
40.639877061 77.0
40.644800917 75.0
40.649724773 65.0
40.654648629 68.0
40.659572485 92.0
40.664496341 80.0
40.669420197 70.0
40.674344053 87.0
40.679267909 81.0
40.684191765 79.0
40.689115621 87.0
40.694039477 74.0
40.698963333 85.0
40.703887189 88.0
40.708811045 86.0
40.713734901 73.0
40.718658757 95.0
40.723582613 92.0
40.728506469 88.0
40.733430325 94.0
40.738354181 68.0
40.743278037 86.0
40.748201893 76.0
40.753125750 71.0
40.758049606 85.0
40.762973462 68.0
40.767897318 102.0
40.772821174 89.0
40.777745030 85.0
40.782668886 82.0
40.787592742 87.0
40.792516598 76.0
40.797440454 70.0
40.802364310 70.0
40.807288166 73.0
40.812212022 83.0
40.817135878 90.0
40.822059734 88.0
40.826983590 92.0
40.831907446 84.0
40.836831302 97.0
40.841755158 80.0
40.846679014 94.0
40.851602870 84.0
40.856526726 84.0
40.861450582 74.0
40.866374438 94.0
40.871298294 75.0
40.876222150 91.0
40.881146006 79.0
40.886069862 91.0
40.890993718 94.0
40.895917574 97.0
40.900841430 89.0
40.905765286 80.0
40.910689142 63.0
40.915612998 81.0
40.920536854 91.0
40.925460710 95.0
40.930384566 90.0
40.935308422 74.0
40.940232278 95.0
40.945156134 76.0
40.950079990 94.0
40.955003846 103.0
40.959927702 109.0
40.964851558 81.0
40.969775414 95.0
40.974699270 93.0
40.979623126 90.0
40.984546982 86.0
40.989470838 85.0
40.994394694 90.0
40.999318550 94.0
41.004242406 102.0
41.009166262 97.0
41.014090118 91.0
41.019013974 106.0
41.023937830 95.0
41.028861686 96.0
41.033785542 97.0
41.038709398 81.0
41.043633254 120.0
41.048557110 99.0
41.053480966 105.0
41.058404822 88.0
41.063328678 104.0
41.068252534 103.0
41.073176390 87.0
41.078100246 87.0
41.083024102 90.0
41.087947958 94.0
41.092871814 107.0
41.097795670 88.0
41.102719526 104.0
41.107643382 95.0
41.112567238 97.0
41.117491094 116.0
41.122414950 94.0
41.127338806 98.0
41.132262662 102.0
41.137186518 96.0
41.142110374 108.0
41.147034230 92.0
41.151958086 108.0
41.156881942 102.0
41.161805798 92.0
41.166729654 113.0
41.171653510 109.0
41.176577366 100.0
41.181501222 104.0
41.186425078 106.0
41.191348934 111.0
41.196272790 124.0
41.201196646 126.0
41.206120502 108.0
41.211044358 122.0
41.215968214 131.0
41.220892070 102.0
41.225815926 134.0
41.230739782 111.0
41.235663638 124.0
41.240587494 114.0
41.245511350 139.0
41.250435207 126.0
41.255359063 118.0
41.260282919 120.0
41.265206775 129.0
41.270130631 126.0
41.275054487 146.0
41.279978343 136.0
41.284902199 119.0
41.289826055 131.0
41.294749911 151.0
41.299673767 144.0
41.304597623 149.0
41.309521479 145.0
41.314445335 161.0
41.319369191 137.0
41.324293047 160.0
41.329216903 175.0
41.334140759 154.0
41.339064615 152.0
41.343988471 184.0
41.348912327 166.0
41.353836183 177.0
41.358760039 191.0
41.363683895 184.0
41.368607751 211.0
41.373531607 194.0
41.378455463 262.0
41.383379319 205.0
41.388303175 266.0
41.393227031 357.0
41.398150887 332.0
41.403074743 394.0
41.407998599 412.0
41.412922455 433.0
41.417846311 422.0
41.422770167 485.0
41.427694023 431.0
41.432617879 477.0
41.437541735 493.0
41.442465591 447.0
41.447389447 511.0
41.452313303 461.0
41.457237159 472.0
41.462161015 437.0
41.467084871 456.0
41.472008727 435.0
41.476932583 427.0
41.481856439 436.0
41.486780295 460.0
41.491704151 524.0
41.496628007 491.0
41.501551863 497.0
41.506475719 551.0
41.511399575 597.0
41.516323431 677.0
41.521247287 700.0
41.526171143 774.0
41.531094999 836.0
41.536018855 928.0
41.540942711 1105.0
41.545866567 1280.0
41.550790423 1513.0
41.555714279 1830.0
41.560638135 2101.0
41.565561991 2716.0
41.570485847 3426.0
41.575409703 4625.0
41.580333559 6656.0
41.585257415 10282.0
41.590181271 16885.0
41.595105127 26943.0
41.600028983 36921.0
41.604952839 43804.0
41.609876695 46625.0
41.614800551 45965.0
41.619724407 41757.0
41.624648263 33819.0
41.629572119 23932.0
41.634495975 15576.0
41.639419831 10328.0
41.644343687 7079.0
41.649267543 5047.0
41.654191399 3814.0
41.659115255 3119.0
41.664039111 2720.0
41.668962967 2434.0
41.673886823 2560.0
41.678810679 2929.0
41.683734535 3230.0
41.688658391 4249.0
41.693582247 6158.0
41.698506103 9308.0
41.703429959 13483.0
41.708353815 17968.0
41.713277671 21184.0
41.718201527 22523.0
41.723125383 22413.0
41.728049239 20199.0
41.732973095 16700.0
41.737896951 12333.0
41.742820807 8542.0
41.747744663 5601.0
41.752668520 3980.0
41.757592376 2757.0
41.762516232 2093.0
41.767440088 1586.0
41.772363944 1352.0
41.777287800 1109.0
41.782211656 937.0
41.787135512 786.0
41.792059368 790.0
41.796983224 648.0
41.801907080 620.0
41.806830936 594.0
41.811754792 543.0
41.816678648 454.0
41.821602504 496.0
41.826526360 416.0
41.831450216 414.0
41.836374072 387.0
41.841297928 340.0
41.846221784 359.0
41.851145640 339.0
41.856069496 341.0
41.860993352 330.0
41.865917208 294.0
41.870841064 285.0
41.875764920 297.0
41.880688776 262.0
41.885612632 264.0
41.890536488 205.0
41.895460344 256.0
41.900384200 189.0
41.905308056 186.0
41.910231912 181.0
41.915155768 178.0
41.920079624 179.0
41.925003480 183.0
41.929927336 165.0
41.934851192 154.0
41.939775048 164.0
41.944698904 173.0
41.949622760 162.0
41.954546616 147.0
41.959470472 173.0
41.964394328 164.0
41.969318184 149.0
41.974242040 159.0
41.979165896 147.0
41.984089752 138.0
41.989013608 155.0
41.993937464 154.0
41.998861320 153.0
42.003785176 159.0
42.008709032 139.0
42.013632888 145.0
42.018556744 132.0
42.023480600 143.0
42.028404456 151.0
42.033328312 128.0
42.038252168 111.0
42.043176024 142.0
42.048099880 123.0
42.053023736 123.0
42.057947592 113.0
42.062871448 119.0
42.067795304 108.0
42.072719160 111.0
42.077643016 124.0
42.082566872 124.0
42.087490728 114.0
42.092414584 134.0
42.097338440 111.0
42.102262296 122.0
42.107186152 92.0
42.112110008 122.0
42.117033864 92.0
42.121957720 124.0
42.126881576 104.0
42.131805432 106.0
42.136729288 90.0
42.141653144 91.0
42.146577000 94.0
42.151500856 107.0
42.156424712 105.0
42.161348568 106.0
42.166272424 99.0
42.171196280 80.0
42.176120136 80.0
42.181043992 84.0
42.185967848 93.0
42.190891704 108.0
42.195815560 100.0
42.200739416 95.0
42.205663272 90.0
42.210587128 90.0
42.215510984 92.0
42.220434840 79.0
42.225358696 84.0
42.230282552 88.0
42.235206408 77.0
42.240130264 67.0
42.245054120 84.0
42.249977977 88.0
42.254901833 98.0
42.259825689 82.0
42.264749545 78.0
42.269673401 84.0
42.274597257 76.0
42.279521113 85.0
42.284444969 73.0
42.289368825 89.0
42.294292681 107.0
42.299216537 81.0
42.304140393 88.0
42.309064249 81.0
42.313988105 72.0
42.318911961 70.0
42.323835817 77.0
42.328759673 74.0
42.333683529 101.0
42.338607385 75.0
42.343531241 90.0
42.348455097 69.0
42.353378953 82.0
42.358302809 66.0
42.363226665 74.0
42.368150521 77.0
42.373074377 83.0
42.377998233 77.0
42.382922089 65.0
42.387845945 70.0
42.392769801 82.0
42.397693657 66.0
42.402617513 85.0
42.407541369 83.0
42.412465225 85.0
42.417389081 66.0
42.422312937 62.0
42.427236793 67.0
42.432160649 69.0
42.437084505 85.0
42.442008361 76.0
42.446932217 78.0
42.451856073 82.0
42.456779929 82.0
42.461703785 71.0
42.466627641 65.0
42.471551497 57.0
42.476475353 84.0
42.481399209 69.0
42.486323065 70.0
42.491246921 67.0
42.496170777 60.0
42.501094633 85.0
42.506018489 59.0
42.510942345 78.0
42.515866201 72.0
42.520790057 68.0
42.525713913 71.0
42.530637769 65.0
42.535561625 86.0
42.540485481 68.0
42.545409337 88.0
42.550333193 76.0
42.555257049 65.0
42.560180905 76.0
42.565104761 66.0
42.570028617 63.0
42.574952473 57.0
42.579876329 74.0
42.584800185 82.0
42.589724041 89.0
42.594647897 80.0
42.599571753 67.0
42.604495609 58.0
42.609419465 64.0
42.614343321 70.0
42.619267177 57.0
42.624191033 72.0
42.629114889 69.0
42.634038745 68.0
42.638962601 66.0
42.643886457 74.0
42.648810313 69.0
42.653734169 70.0
42.658658025 56.0
42.663581881 49.0
42.668505737 73.0
42.673429593 65.0
42.678353449 59.0
42.683277305 81.0
42.688201161 58.0
42.693125017 74.0
42.698048873 67.0
42.702972729 52.0
42.707896585 55.0
42.712820441 61.0
42.717744297 77.0
42.722668153 73.0
42.727592009 57.0
42.732515865 57.0
42.737439721 77.0
42.742363577 47.0
42.747287433 54.0
42.752211290 58.0
42.757135146 69.0
42.762059002 72.0
42.766982858 52.0
42.771906714 53.0
42.776830570 64.0
42.781754426 53.0
42.786678282 62.0
42.791602138 67.0
42.796525994 57.0
42.801449850 61.0
42.806373706 64.0
42.811297562 57.0
42.816221418 71.0
42.821145274 61.0
42.826069130 72.0
42.830992986 63.0
42.835916842 69.0
42.840840698 57.0
42.845764554 74.0
42.850688410 59.0
42.855612266 72.0
42.860536122 63.0
42.865459978 82.0
42.870383834 69.0
42.875307690 62.0
42.880231546 64.0
42.885155402 60.0
42.890079258 48.0
42.895003114 65.0
42.899926970 71.0
42.904850826 65.0
42.909774682 66.0
42.914698538 72.0
42.919622394 58.0
42.924546250 60.0
42.929470106 58.0
42.934393962 70.0
42.939317818 65.0
42.944241674 53.0
42.949165530 59.0
42.954089386 48.0
42.959013242 63.0
42.963937098 60.0
42.968860954 73.0
42.973784810 52.0
42.978708666 60.0
42.983632522 68.0
42.988556378 57.0
42.993480234 65.0
42.998404090 53.0
43.003327946 53.0
43.008251802 73.0
43.013175658 57.0
43.018099514 53.0
43.023023370 79.0
43.027947226 68.0
43.032871082 60.0
43.037794938 68.0
43.042718794 60.0
43.047642650 71.0
43.052566506 70.0
43.057490362 70.0
43.062414218 51.0
43.067338074 53.0
43.072261930 67.0
43.077185786 68.0
43.082109642 75.0
43.087033498 73.0
43.091957354 55.0
43.096881210 56.0
43.101805066 76.0
43.106728922 60.0
43.111652778 80.0
43.116576634 57.0
43.121500490 64.0
43.126424346 39.0
43.131348202 52.0
43.136272058 58.0
43.141195914 58.0
43.146119770 62.0
43.151043626 48.0
43.155967482 67.0
43.160891338 56.0
43.165815194 55.0
43.170739050 51.0
43.175662906 55.0
43.180586762 63.0
43.185510618 46.0
43.190434474 55.0
43.195358330 57.0
43.200282186 56.0
43.205206042 67.0
43.210129898 68.0
43.215053754 56.0
43.219977610 58.0
43.224901466 62.0
43.229825322 61.0
43.234749178 68.0
43.239673034 61.0
43.244596890 58.0
43.249520747 67.0
43.254444603 66.0
43.259368459 71.0
43.264292315 68.0
43.269216171 62.0
43.274140027 62.0
43.279063883 49.0
43.283987739 66.0
43.288911595 70.0
43.293835451 74.0
43.298759307 62.0
43.303683163 70.0
43.308607019 65.0
43.313530875 73.0
43.318454731 47.0
43.323378587 59.0
43.328302443 60.0
43.333226299 49.0
43.338150155 46.0
43.343074011 53.0
43.347997867 54.0
43.352921723 65.0
43.357845579 61.0
43.362769435 67.0
43.367693291 65.0
43.372617147 50.0
43.377541003 63.0
43.382464859 39.0
43.387388715 52.0
43.392312571 65.0
43.397236427 50.0
43.402160283 61.0
43.407084139 62.0
43.412007995 50.0
43.416931851 67.0
43.421855707 74.0
43.426779563 62.0
43.431703419 74.0
43.436627275 61.0
43.441551131 56.0
43.446474987 64.0
43.451398843 56.0
43.456322699 69.0
43.461246555 63.0
43.466170411 66.0
43.471094267 71.0
43.476018123 61.0
43.480941979 55.0
43.485865835 52.0
43.490789691 67.0
43.495713547 67.0
43.500637403 62.0
43.505561259 52.0
43.510485115 70.0
43.515408971 67.0
43.520332827 69.0
43.525256683 65.0
43.530180539 72.0
43.535104395 70.0
43.540028251 48.0
43.544952107 51.0
43.549875963 84.0
43.554799819 57.0
43.559723675 57.0
43.564647531 72.0
43.569571387 52.0
43.574495243 58.0
43.579419099 60.0
43.584342955 52.0
43.589266811 48.0
43.594190667 53.0
43.599114523 69.0
43.604038379 52.0
43.608962235 52.0
43.613886091 57.0
43.618809947 65.0
43.623733803 64.0
43.628657659 64.0
43.633581515 64.0
43.638505371 63.0
43.643429227 71.0
43.648353083 54.0
43.653276939 63.0
43.658200795 71.0
43.663124651 70.0
43.668048507 65.0
43.672972363 62.0
43.677896219 67.0
43.682820075 69.0
43.687743931 62.0
43.692667787 66.0
43.697591643 81.0
43.702515499 60.0
43.707439355 70.0
43.712363211 61.0
43.717287067 56.0
43.722210923 46.0
43.727134779 64.0
43.732058635 66.0
43.736982491 50.0
43.741906347 57.0
43.746830203 65.0
43.751754060 54.0
43.756677916 72.0
43.761601772 66.0
43.766525628 51.0
43.771449484 65.0
43.776373340 68.0
43.781297196 82.0
43.786221052 74.0
43.791144908 65.0
43.796068764 73.0
43.800992620 85.0
43.805916476 75.0
43.810840332 71.0
43.815764188 79.0
43.820688044 70.0
43.825611900 69.0
43.830535756 69.0
43.835459612 67.0
43.840383468 74.0
43.845307324 70.0
43.850231180 73.0
43.855155036 60.0
43.860078892 66.0
43.865002748 60.0
43.869926604 73.0
43.874850460 72.0
43.879774316 76.0
43.884698172 62.0
43.889622028 50.0
43.894545884 73.0
43.899469740 70.0
43.904393596 60.0
43.909317452 59.0
43.914241308 83.0
43.919165164 62.0
43.924089020 74.0
43.929012876 56.0
43.933936732 72.0
43.938860588 75.0
43.943784444 66.0
43.948708300 68.0
43.953632156 60.0
43.958556012 58.0
43.963479868 57.0
43.968403724 80.0
43.973327580 78.0
43.978251436 74.0
43.983175292 67.0
43.988099148 64.0
43.993023004 77.0
43.997946860 76.0
44.002870716 83.0
44.007794572 72.0
44.012718428 75.0
44.017642284 76.0
44.022566140 70.0
44.027489996 74.0
44.032413852 83.0
44.037337708 65.0
44.042261564 62.0
44.047185420 71.0
44.052109276 82.0
44.057033132 73.0
44.061956988 79.0
44.066880844 66.0
44.071804700 81.0
44.076728556 78.0
44.081652412 71.0
44.086576268 68.0
44.091500124 67.0
44.096423980 79.0
44.101347836 90.0
44.106271692 83.0
44.111195548 68.0
44.116119404 88.0
44.121043260 89.0
44.125967116 78.0
44.130890972 93.0
44.135814828 87.0
44.140738684 88.0
44.145662540 75.0
44.150586396 82.0
44.155510252 78.0
44.160434108 91.0
44.165357964 83.0
44.170281820 74.0
44.175205676 73.0
44.180129532 90.0
44.185053388 75.0
44.189977244 105.0
44.194901100 95.0
44.199824956 89.0
44.204748812 82.0
44.209672668 89.0
44.214596524 91.0
44.219520380 89.0
44.224444236 95.0
44.229368092 72.0
44.234291948 108.0
44.239215804 89.0
44.244139660 94.0
44.249063517 111.0
44.253987373 89.0
44.258911229 83.0
44.263835085 92.0
44.268758941 93.0
44.273682797 101.0
44.278606653 87.0
44.283530509 99.0
44.288454365 108.0
44.293378221 120.0
44.298302077 109.0
44.303225933 111.0
44.308149789 111.0
44.313073645 124.0
44.317997501 124.0
44.322921357 118.0
44.327845213 106.0
44.332769069 114.0
44.337692925 127.0
44.342616781 140.0
44.347540637 133.0
44.352464493 119.0
44.357388349 128.0
44.362312205 123.0
44.367236061 122.0
44.372159917 118.0
44.377083773 159.0
44.382007629 125.0
44.386931485 121.0
44.391855341 125.0
44.396779197 129.0
44.401703053 154.0
44.406626909 131.0
44.411550765 136.0
44.416474621 120.0
44.421398477 101.0
44.426322333 130.0
44.431246189 140.0
44.436170045 134.0
44.441093901 142.0
44.446017757 126.0
44.450941613 130.0
44.455865469 122.0
44.460789325 103.0
44.465713181 118.0
44.470637037 130.0
44.475560893 117.0
44.480484749 138.0
44.485408605 128.0
44.490332461 115.0
44.495256317 122.0
44.500180173 108.0
44.505104029 123.0
44.510027885 129.0
44.514951741 92.0
44.519875597 122.0
44.524799453 109.0
44.529723309 116.0
44.534647165 117.0
44.539571021 107.0
44.544494877 107.0
44.549418733 113.0
44.554342589 98.0
44.559266445 94.0
44.564190301 99.0
44.569114157 84.0
44.574038013 86.0
44.578961869 87.0
44.583885725 106.0
44.588809581 104.0
44.593733437 86.0
44.598657293 92.0
44.603581149 105.0
44.608505005 98.0
44.613428861 80.0
44.618352717 70.0
44.623276573 79.0
44.628200429 80.0
44.633124285 91.0
44.638048141 92.0
44.642971997 78.0
44.647895853 75.0
44.652819709 64.0
44.657743565 75.0
44.662667421 80.0
44.667591277 94.0
44.672515133 82.0
44.677438989 74.0
44.682362845 64.0
44.687286701 78.0
44.692210557 67.0
44.697134413 77.0
44.702058269 87.0
44.706982125 76.0
44.711905981 75.0
44.716829837 87.0
44.721753693 60.0
44.726677549 60.0
44.731601405 75.0
44.736525261 67.0
44.741449117 81.0
44.746372973 73.0
44.751296830 72.0
44.756220686 75.0
44.761144542 70.0
44.766068398 64.0
44.770992254 68.0
44.775916110 73.0
44.780839966 83.0
44.785763822 62.0
44.790687678 70.0
44.795611534 76.0
44.800535390 67.0
44.805459246 83.0
44.810383102 73.0
44.815306958 68.0
44.820230814 68.0
44.825154670 55.0
44.830078526 65.0
44.835002382 61.0
44.839926238 55.0
44.844850094 68.0
44.849773950 88.0
44.854697806 70.0
44.859621662 56.0
44.864545518 59.0
44.869469374 49.0
44.874393230 61.0
44.879317086 67.0
44.884240942 58.0
44.889164798 55.0
44.894088654 79.0
44.899012510 49.0
44.903936366 58.0
44.908860222 68.0
44.913784078 56.0
44.918707934 69.0
44.923631790 56.0
44.928555646 52.0
44.933479502 74.0
44.938403358 67.0
44.943327214 58.0
44.948251070 76.0
44.953174926 65.0
44.958098782 53.0
44.963022638 58.0
44.967946494 57.0
44.972870350 64.0
44.977794206 60.0
44.982718062 76.0
44.987641918 62.0
44.992565774 57.0
44.997489630 58.0
