30.002461930 94.0
30.007385786 127.0
30.012309642 115.0
30.017233498 98.0
30.022157354 110.0
30.027081210 117.0
30.032005066 120.0
30.036928922 114.0
30.041852778 107.0
30.046776634 93.0
30.051700490 113.0
30.056624346 115.0
30.061548202 120.0
30.066472058 98.0
30.071395914 117.0
30.076319770 106.0
30.081243626 108.0
30.086167482 121.0
30.091091338 104.0
30.096015194 112.0
30.100939050 119.0
30.105862906 122.0
30.110786762 123.0
30.115710618 103.0
30.120634474 103.0
30.125558330 101.0
30.130482186 103.0
30.135406042 119.0
30.140329898 116.0
30.145253754 97.0
30.150177610 113.0
30.155101466 123.0
30.160025322 91.0
30.164949178 110.0
30.169873034 103.0
30.174796890 110.0
30.179720746 100.0
30.184644602 126.0
30.189568458 111.0
30.194492314 107.0
30.199416170 120.0
30.204340026 111.0
30.209263882 124.0
30.214187738 101.0
30.219111594 99.0
30.224035450 131.0
30.228959306 111.0
30.233883162 118.0
30.238807018 108.0
30.243730874 97.0
30.248654730 101.0
30.253578587 107.0
30.258502443 112.0
30.263426299 110.0
30.268350155 116.0
30.273274011 129.0
30.278197867 113.0
30.283121723 105.0
30.288045579 109.0
30.292969435 107.0
30.297893291 106.0
30.302817147 110.0
30.307741003 113.0
30.312664859 114.0
30.317588715 98.0
30.322512571 101.0
30.327436427 108.0
30.332360283 90.0
30.337284139 122.0
30.342207995 95.0
30.347131851 107.0
30.352055707 107.0
30.356979563 107.0
30.361903419 125.0
30.366827275 119.0
30.371751131 104.0
30.376674987 99.0
30.381598843 125.0
30.386522699 96.0
30.391446555 104.0
30.396370411 120.0
30.401294267 109.0
30.406218123 120.0
30.411141979 120.0
30.416065835 92.0
30.420989691 107.0
30.425913547 96.0
30.430837403 96.0
30.435761259 92.0
30.440685115 104.0
30.445608971 101.0
30.450532827 107.0
30.455456683 98.0
30.460380539 111.0
30.465304395 105.0
30.470228251 100.0
30.475152107 116.0
30.480075963 104.0
30.484999819 93.0
30.489923675 107.0
30.494847531 105.0
30.499771387 93.0
30.504695243 110.0
30.509619099 112.0
30.514542955 104.0
30.519466811 105.0
30.524390667 103.0
30.529314523 120.0
30.534238379 101.0
30.539162235 125.0
30.544086091 129.0
30.549009947 132.0
30.553933803 119.0
30.558857659 93.0
30.563781515 103.0
30.568705371 117.0
30.573629227 80.0
30.578553083 110.0
30.583476939 108.0
30.588400795 112.0
30.593324651 110.0
30.598248507 124.0
30.603172363 105.0
30.608096219 101.0
30.613020075 107.0
30.617943931 87.0
30.622867787 110.0
30.627791643 121.0
30.632715499 94.0
30.637639355 116.0
30.642563211 99.0
30.647487067 97.0
30.652410923 93.0
30.657334779 99.0
30.662258635 118.0
30.667182491 107.0
30.672106347 116.0
30.677030203 105.0
30.681954059 117.0
30.686877915 123.0
30.691801771 117.0
30.696725627 103.0
30.701649483 105.0
30.706573339 119.0
30.711497195 104.0
30.716421051 119.0
30.721344907 110.0
30.726268763 112.0
30.731192619 102.0
30.736116475 107.0
30.741040331 103.0
30.745964187 106.0
30.750888043 116.0
30.755811900 102.0
30.760735756 110.0
30.765659612 94.0
30.770583468 116.0
30.775507324 106.0
30.780431180 108.0
30.785355036 104.0
30.790278892 116.0
30.795202748 119.0
30.800126604 114.0
30.805050460 110.0
30.809974316 118.0
30.814898172 126.0
30.819822028 94.0
30.824745884 104.0
30.829669740 97.0
30.834593596 102.0
30.839517452 102.0
30.844441308 114.0
30.849365164 97.0
30.854289020 101.0
30.859212876 111.0
30.864136732 112.0
30.869060588 91.0
30.873984444 112.0
30.878908300 127.0
30.883832156 106.0
30.888756012 117.0
30.893679868 105.0
30.898603724 103.0
30.903527580 97.0
30.908451436 103.0
30.913375292 107.0
30.918299148 108.0
30.923223004 101.0
30.928146860 105.0
30.933070716 82.0
30.937994572 104.0
30.942918428 98.0
30.947842284 86.0
30.952766140 134.0
30.957689996 107.0
30.962613852 99.0
30.967537708 105.0
30.972461564 97.0
30.977385420 92.0
30.982309276 111.0
30.987233132 106.0
30.992156988 98.0
30.997080844 111.0
31.002004700 99.0
31.006928556 99.0
31.011852412 116.0
31.016776268 88.0
31.021700124 118.0
31.026623980 84.0
31.031547836 115.0
31.036471692 106.0
31.041395548 129.0
31.046319404 115.0
31.051243260 129.0
31.056167116 103.0
31.061090972 101.0
31.066014828 106.0
31.070938684 123.0
31.075862540 110.0
31.080786396 116.0
31.085710252 111.0
31.090634108 84.0
31.095557964 102.0
31.100481820 98.0
31.105405676 101.0
31.110329532 97.0
31.115253388 102.0
31.120177244 115.0
31.125101100 125.0
31.130024956 98.0
31.134948812 102.0
31.139872668 110.0
31.144796524 105.0
31.149720380 128.0
31.154644236 101.0
31.159568092 95.0
31.164491948 102.0
31.169415804 102.0
31.174339660 109.0
31.179263516 111.0
31.184187372 111.0
31.189111228 109.0
31.194035084 102.0
31.198958940 112.0
31.203882796 98.0
31.208806652 120.0
31.213730508 108.0
31.218654364 97.0
31.223578220 113.0
31.228502076 100.0
31.233425932 98.0
31.238349788 92.0
31.243273644 107.0
31.248197500 112.0
31.253121357 109.0
31.258045213 100.0
31.262969069 111.0
31.267892925 119.0
31.272816781 97.0
31.277740637 112.0
31.282664493 90.0
31.287588349 120.0
31.292512205 111.0
31.297436061 92.0
31.302359917 105.0
31.307283773 123.0
31.312207629 97.0
31.317131485 100.0
31.322055341 96.0
31.326979197 90.0
31.331903053 110.0
31.336826909 105.0
31.341750765 99.0
31.346674621 131.0
31.351598477 119.0
31.356522333 92.0
31.361446189 115.0
31.366370045 88.0
31.371293901 113.0
31.376217757 133.0
31.381141613 126.0
31.386065469 93.0
31.390989325 103.0
31.395913181 100.0
31.400837037 88.0
31.405760893 108.0
31.410684749 98.0
31.415608605 112.0
31.420532461 103.0
31.425456317 104.0
31.430380173 106.0
31.435304029 126.0
31.440227885 116.0
31.445151741 92.0
31.450075597 108.0
31.454999453 106.0
31.459923309 126.0
31.464847165 123.0
31.469771021 103.0
31.474694877 108.0
31.479618733 110.0
31.484542589 119.0
31.489466445 123.0
31.494390301 126.0
31.499314157 114.0
31.504238013 103.0
31.509161869 101.0
31.514085725 107.0
31.519009581 113.0
31.523933437 130.0
31.528857293 109.0
31.533781149 100.0
31.538705005 115.0
31.543628861 100.0
31.548552717 108.0
31.553476573 104.0
31.558400429 103.0
31.563324285 110.0
31.568248141 93.0
31.573171997 133.0
31.578095853 105.0
31.583019709 103.0
31.587943565 126.0
31.592867421 88.0
31.597791277 108.0
31.602715133 131.0
31.607638989 104.0
31.612562845 121.0
31.617486701 114.0
31.622410557 106.0
31.627334413 109.0
31.632258269 115.0
31.637182125 111.0
31.642105981 96.0
31.647029837 116.0
31.651953693 111.0
31.656877549 109.0
31.661801405 111.0
31.666725261 105.0
31.671649117 102.0
31.676572973 110.0
31.681496829 124.0
31.686420685 124.0
31.691344541 108.0
31.696268397 114.0
31.701192253 91.0
31.706116109 114.0
31.711039965 105.0
31.715963821 98.0
31.720887677 114.0
31.725811533 93.0
31.730735389 98.0
31.735659245 113.0
31.740583101 112.0
31.745506957 114.0
31.750430813 130.0
31.755354670 99.0
31.760278526 130.0
31.765202382 102.0
31.770126238 99.0
31.775050094 105.0
31.779973950 100.0
31.784897806 108.0
31.789821662 115.0
31.794745518 97.0
31.799669374 104.0
31.804593230 121.0
31.809517086 130.0
31.814440942 113.0
31.819364798 115.0
31.824288654 116.0
31.829212510 96.0
31.834136366 96.0
31.839060222 105.0
31.843984078 123.0
31.848907934 103.0
31.853831790 98.0
31.858755646 120.0
31.863679502 102.0
31.868603358 115.0
31.873527214 115.0
31.878451070 125.0
31.883374926 99.0
31.888298782 120.0
31.893222638 101.0
31.898146494 90.0
31.903070350 128.0
31.907994206 124.0
31.912918062 129.0
31.917841918 107.0
31.922765774 102.0
31.927689630 108.0
31.932613486 112.0
31.937537342 108.0
31.942461198 114.0
31.947385054 97.0
31.952308910 117.0
31.957232766 102.0
31.962156622 99.0
31.967080478 96.0
31.972004334 120.0
31.976928190 106.0
31.981852046 85.0
31.986775902 107.0
31.991699758 102.0
31.996623614 99.0
32.001547470 122.0
32.006471326 113.0
32.011395182 110.0
32.016319038 110.0
32.021242894 118.0
32.026166750 109.0
32.031090606 105.0
32.036014462 118.0
32.040938318 107.0
32.045862174 123.0
32.050786030 114.0
32.055709886 114.0
32.060633742 99.0
32.065557598 122.0
32.070481454 110.0
32.075405310 105.0
32.080329166 110.0
32.085253022 124.0
32.090176878 112.0
32.095100734 90.0
32.100024590 124.0
32.104948446 107.0
32.109872302 110.0
32.114796158 104.0
32.119720014 111.0
32.124643870 101.0
32.129567726 114.0
32.134491582 101.0
32.139415438 115.0
32.144339294 116.0
32.149263150 92.0
32.154187006 107.0
32.159110862 104.0
32.164034718 96.0
32.168958574 100.0
32.173882430 97.0
32.178806286 109.0
32.183730142 99.0
32.188653998 114.0
32.193577854 105.0
32.198501710 115.0
32.203425566 96.0
32.208349422 101.0
32.213273278 114.0
32.218197134 96.0
32.223120990 93.0
32.228044846 101.0
32.232968702 99.0
32.237892558 108.0
32.242816414 97.0
32.247740270 104.0
32.252664127 94.0
32.257587983 102.0
32.262511839 100.0
32.267435695 104.0
32.272359551 91.0
32.277283407 93.0
32.282207263 107.0
32.287131119 107.0
32.292054975 101.0
32.296978831 89.0
32.301902687 119.0
32.306826543 116.0
32.311750399 111.0
32.316674255 101.0
32.321598111 109.0
32.326521967 114.0
32.331445823 103.0
32.336369679 99.0
32.341293535 98.0
32.346217391 91.0
32.351141247 122.0
32.356065103 86.0
32.360988959 115.0
32.365912815 97.0
32.370836671 97.0
32.375760527 116.0
32.380684383 106.0
32.385608239 115.0
32.390532095 120.0
32.395455951 110.0
32.400379807 102.0
32.405303663 106.0
32.410227519 112.0
32.415151375 125.0
32.420075231 119.0
32.424999087 131.0
32.429922943 110.0
32.434846799 110.0
32.439770655 120.0
32.444694511 105.0
32.449618367 116.0
32.454542223 101.0
32.459466079 119.0
32.464389935 115.0
32.469313791 102.0
32.474237647 103.0
32.479161503 132.0
32.484085359 105.0
32.489009215 111.0
32.493933071 98.0
32.498856927 104.0
32.503780783 109.0
32.508704639 117.0
32.513628495 110.0
32.518552351 104.0
32.523476207 114.0
32.528400063 124.0
32.533323919 103.0
32.538247775 122.0
32.543171631 120.0
32.548095487 123.0
32.553019343 128.0
32.557943199 125.0
32.562867055 113.0
32.567790911 141.0
32.572714767 119.0
32.577638623 123.0
32.582562479 117.0
32.587486335 113.0
32.592410191 113.0
32.597334047 123.0
32.602257903 144.0
32.607181759 123.0
32.612105615 136.0
32.617029471 144.0
32.621953327 133.0
32.626877183 139.0
32.631801039 153.0
32.636724895 128.0
32.641648751 124.0
32.646572607 138.0
32.651496463 130.0
32.656420319 122.0
32.661344175 105.0
32.666268031 132.0
32.671191887 122.0
32.676115743 119.0
32.681039599 143.0
32.685963455 139.0
32.690887311 124.0
32.695811167 120.0
32.700735023 125.0
32.705658879 127.0
32.710582735 138.0
32.715506591 129.0
32.720430447 105.0
32.725354303 111.0
32.730278159 138.0
32.735202015 102.0
32.740125871 112.0
32.745049727 92.0
32.749973583 121.0
32.754897440 121.0
32.759821296 105.0
32.764745152 121.0
32.769669008 106.0
32.774592864 125.0
32.779516720 127.0
32.784440576 119.0
32.789364432 124.0
32.794288288 118.0
32.799212144 119.0
32.804136000 117.0
32.809059856 130.0
32.813983712 106.0
32.818907568 108.0
32.823831424 108.0
32.828755280 129.0
32.833679136 98.0
32.838602992 96.0
32.843526848 115.0
32.848450704 116.0
32.853374560 124.0
32.858298416 118.0
32.863222272 107.0
32.868146128 112.0
32.873069984 134.0
32.877993840 108.0
32.882917696 119.0
32.887841552 115.0
32.892765408 107.0
32.897689264 116.0
32.902613120 135.0
32.907536976 123.0
32.912460832 107.0
32.917384688 88.0
32.922308544 105.0
32.927232400 109.0
32.932156256 122.0
32.937080112 137.0
32.942003968 108.0
32.946927824 99.0
32.951851680 118.0
32.956775536 122.0
32.961699392 121.0
32.966623248 107.0
32.971547104 115.0
32.976470960 96.0
32.981394816 104.0
32.986318672 115.0
32.991242528 90.0
32.996166384 113.0
33.001090240 122.0
33.006014096 106.0
33.010937952 132.0
33.015861808 107.0
33.020785664 111.0
33.025709520 98.0
33.030633376 100.0
33.035557232 96.0
33.040481088 105.0
33.045404944 97.0
33.050328800 102.0
33.055252656 109.0
33.060176512 101.0
33.065100368 92.0
33.070024224 94.0
33.074948080 111.0
33.079871936 132.0
33.084795792 113.0
33.089719648 105.0
33.094643504 90.0
33.099567360 117.0
33.104491216 101.0
33.109415072 98.0
33.114338928 112.0
33.119262784 121.0
33.124186640 127.0
33.129110496 100.0
33.134034352 108.0
33.138958208 115.0
33.143882064 107.0
33.148805920 89.0
33.153729776 98.0
33.158653632 93.0
33.163577488 118.0
33.168501344 97.0
33.173425200 103.0
33.178349056 114.0
33.183272912 112.0
33.188196768 114.0
33.193120624 101.0
33.198044480 117.0
33.202968336 93.0
33.207892192 117.0
33.212816048 106.0
33.217739904 81.0
33.222663760 115.0
33.227587616 100.0
33.232511472 111.0
33.237435328 111.0
33.242359184 112.0
33.247283040 93.0
33.252206897 101.0
33.257130753 106.0
33.262054609 97.0
33.266978465 120.0
33.271902321 111.0
33.276826177 109.0
33.281750033 109.0
33.286673889 106.0
33.291597745 120.0
33.296521601 120.0
33.301445457 117.0
33.306369313 118.0
33.311293169 95.0
33.316217025 102.0
33.321140881 95.0
33.326064737 100.0
33.330988593 113.0
33.335912449 111.0
33.340836305 85.0
33.345760161 104.0
33.350684017 93.0
33.355607873 120.0
33.360531729 107.0
33.365455585 113.0
33.370379441 101.0
33.375303297 122.0
33.380227153 110.0
33.385151009 99.0
33.390074865 96.0
33.394998721 118.0
33.399922577 108.0
33.404846433 120.0
33.409770289 103.0
33.414694145 123.0
33.419618001 112.0
33.424541857 98.0
33.429465713 105.0
33.434389569 119.0
33.439313425 118.0
33.444237281 107.0
33.449161137 104.0
33.454084993 97.0
33.459008849 122.0
33.463932705 99.0
33.468856561 112.0
33.473780417 106.0
33.478704273 113.0
33.483628129 106.0
33.488551985 103.0
33.493475841 118.0
33.498399697 101.0
33.503323553 121.0
33.508247409 111.0
33.513171265 96.0
33.518095121 97.0
33.523018977 112.0
33.527942833 102.0
33.532866689 112.0
33.537790545 104.0
33.542714401 122.0
33.547638257 124.0
33.552562113 118.0
33.557485969 108.0
33.562409825 107.0
33.567333681 106.0
33.572257537 116.0
33.577181393 127.0
33.582105249 100.0
33.587029105 98.0
33.591952961 103.0
33.596876817 108.0
33.601800673 103.0
33.606724529 121.0
33.611648385 102.0
33.616572241 110.0
33.621496097 126.0
33.626419953 111.0
33.631343809 110.0
33.636267665 89.0
33.641191521 123.0
33.646115377 120.0
33.651039233 119.0
33.655963089 114.0
33.660886945 107.0
33.665810801 125.0
33.670734657 126.0
33.675658513 131.0
33.680582369 138.0
33.685506225 103.0
33.690430081 137.0
33.695353937 126.0
33.700277793 116.0
33.705201649 136.0
33.710125505 135.0
33.715049361 117.0
33.719973217 104.0
33.724897073 129.0
33.729820929 135.0
33.734744785 121.0
33.739668641 115.0
33.744592497 104.0
33.749516353 129.0
33.754440210 134.0
33.759364066 113.0
33.764287922 109.0
33.769211778 120.0
33.774135634 117.0
33.779059490 141.0
33.783983346 115.0
33.788907202 118.0
33.793831058 126.0
33.798754914 131.0
33.803678770 136.0
33.808602626 110.0
33.813526482 131.0
33.818450338 137.0
33.823374194 130.0
33.828298050 150.0
33.833221906 135.0
33.838145762 121.0
33.843069618 124.0
33.847993474 126.0
33.852917330 138.0
33.857841186 129.0
33.862765042 144.0
33.867688898 149.0
33.872612754 158.0
33.877536610 150.0
33.882460466 161.0
33.887384322 150.0
33.892308178 184.0
33.897232034 159.0
33.902155890 221.0
33.907079746 272.0
33.912003602 298.0
33.916927458 408.0
33.921851314 544.0
33.926775170 670.0
33.931699026 837.0
33.936622882 937.0
33.941546738 1115.0
33.946470594 1163.0
33.951394450 1241.0
33.956318306 1224.0
33.961242162 1232.0
33.966166018 1185.0
33.971089874 1124.0
33.976013730 1078.0
33.980937586 971.0
33.985861442 844.0
33.990785298 683.0
33.995709154 522.0
34.000633010 403.0
34.005556866 408.0
34.010480722 326.0
34.015404578 278.0
34.020328434 264.0
34.025252290 213.0
34.030176146 181.0
34.035100002 185.0
34.040023858 187.0
34.044947714 184.0
34.049871570 150.0
34.054795426 165.0
34.059719282 173.0
34.064643138 183.0
34.069566994 124.0
34.074490850 138.0
34.079414706 145.0
34.084338562 136.0
34.089262418 139.0
34.094186274 136.0
34.099110130 143.0
34.104033986 133.0
34.108957842 134.0
34.113881698 131.0
34.118805554 141.0
34.123729410 117.0
34.128653266 134.0
34.133577122 135.0
34.138500978 144.0
34.143424834 119.0
34.148348690 129.0
34.153272546 118.0
34.158196402 139.0
34.163120258 127.0
34.168044114 132.0
34.172967970 129.0
34.177891826 133.0
34.182815682 155.0
34.187739538 135.0
34.192663394 132.0
34.197587250 132.0
34.202511106 124.0
34.207434962 125.0
34.212358818 136.0
34.217282674 136.0
34.222206530 140.0
34.227130386 134.0
34.232054242 119.0
34.236978098 133.0
34.241901954 119.0
34.246825810 120.0
34.251749667 117.0
34.256673523 123.0
34.261597379 139.0
34.266521235 126.0
34.271445091 124.0
34.276368947 130.0
34.281292803 110.0
34.286216659 141.0
34.291140515 135.0
34.296064371 115.0
34.300988227 125.0
34.305912083 108.0
34.310835939 106.0
34.315759795 117.0
34.320683651 120.0
34.325607507 153.0
34.330531363 131.0
34.335455219 103.0
34.340379075 113.0
34.345302931 119.0
34.350226787 107.0
34.355150643 135.0
34.360074499 126.0
34.364998355 129.0
34.369922211 126.0
34.374846067 107.0
34.379769923 132.0
34.384693779 128.0
34.389617635 121.0
34.394541491 123.0
34.399465347 138.0
34.404389203 105.0
34.409313059 110.0
34.414236915 117.0
34.419160771 121.0
34.424084627 115.0
34.429008483 112.0
34.433932339 124.0
34.438856195 124.0
34.443780051 115.0
34.448703907 105.0
34.453627763 111.0
34.458551619 130.0
34.463475475 108.0
34.468399331 132.0
34.473323187 118.0
34.478247043 115.0
34.483170899 138.0
34.488094755 137.0
34.493018611 138.0
34.497942467 109.0
34.502866323 151.0
34.507790179 100.0
34.512714035 131.0
34.517637891 116.0
34.522561747 139.0
34.527485603 125.0
34.532409459 119.0
34.537333315 113.0
34.542257171 150.0
34.547181027 117.0
34.552104883 108.0
34.557028739 138.0
34.561952595 126.0
34.566876451 136.0
34.571800307 111.0
34.576724163 140.0
34.581648019 138.0
34.586571875 122.0
34.591495731 116.0
34.596419587 117.0
34.601343443 138.0
34.606267299 129.0
34.611191155 122.0
34.616115011 122.0
34.621038867 122.0
34.625962723 143.0
34.630886579 141.0
34.635810435 114.0
34.640734291 118.0
34.645658147 147.0
34.650582003 116.0
34.655505859 121.0
34.660429715 154.0
34.665353571 119.0
34.670277427 130.0
34.675201283 147.0
34.680125139 113.0
34.685048995 141.0
34.689972851 114.0
34.694896707 135.0
34.699820563 118.0
34.704744419 137.0
34.709668275 136.0
34.714592131 123.0
34.719515987 131.0
34.724439843 115.0
34.729363699 118.0
34.734287555 119.0
34.739211411 134.0
34.744135267 153.0
34.749059123 124.0
34.753982980 134.0
34.758906836 142.0
34.763830692 126.0
34.768754548 139.0
34.773678404 118.0
34.778602260 147.0
34.783526116 121.0
34.788449972 109.0
34.793373828 127.0
34.798297684 132.0
34.803221540 130.0
34.808145396 115.0
34.813069252 136.0
34.817993108 127.0
34.822916964 136.0
34.827840820 111.0
34.832764676 135.0
34.837688532 124.0
34.842612388 140.0
34.847536244 137.0
34.852460100 133.0
34.857383956 144.0
34.862307812 124.0
34.867231668 142.0
34.872155524 133.0
34.877079380 128.0
34.882003236 128.0
34.886927092 115.0
34.891850948 115.0
34.896774804 122.0
34.901698660 126.0
34.906622516 122.0
34.911546372 130.0
34.916470228 137.0
34.921394084 141.0
34.926317940 130.0
34.931241796 144.0
34.936165652 118.0
34.941089508 124.0
34.946013364 122.0
34.950937220 136.0
34.955861076 130.0
34.960784932 126.0
34.965708788 142.0
34.970632644 117.0
34.975556500 145.0
34.980480356 125.0
34.985404212 135.0
34.990328068 116.0
34.995251924 128.0
35.000175780 152.0
35.005099636 116.0
35.010023492 126.0
35.014947348 129.0
35.019871204 135.0
35.024795060 137.0
35.029718916 142.0
35.034642772 130.0
35.039566628 159.0
35.044490484 112.0
35.049414340 133.0
35.054338196 123.0
35.059262052 137.0
35.064185908 138.0
35.069109764 136.0
35.074033620 138.0
35.078957476 119.0
35.083881332 151.0
35.088805188 127.0
35.093729044 133.0
35.098652900 145.0
35.103576756 130.0
35.108500612 102.0
35.113424468 137.0
35.118348324 145.0
35.123272180 136.0
35.128196036 131.0
35.133119892 148.0
35.138043748 132.0
35.142967604 128.0
35.147891460 144.0
35.152815316 137.0
35.157739172 129.0
35.162663028 132.0
35.167586884 152.0
35.172510740 168.0
35.177434596 139.0
35.182358452 161.0
35.187282308 149.0
35.192206164 126.0
35.197130020 167.0
35.202053876 122.0
35.206977732 126.0
35.211901588 141.0
35.216825444 141.0
35.221749300 143.0
35.226673156 153.0
35.231597012 131.0
35.236520868 153.0
35.241444724 149.0
35.246368580 156.0
35.251292437 147.0
35.256216293 137.0
35.261140149 161.0
35.266064005 135.0
35.270987861 149.0
35.275911717 147.0
35.280835573 145.0
35.285759429 144.0
35.290683285 124.0
35.295607141 133.0
35.300530997 163.0
35.305454853 130.0
35.310378709 143.0
35.315302565 142.0
35.320226421 150.0
35.325150277 155.0
35.330074133 150.0
35.334997989 146.0
35.339921845 145.0
35.344845701 150.0
35.349769557 148.0
35.354693413 176.0
35.359617269 142.0
35.364541125 174.0
35.369464981 146.0
35.374388837 139.0
35.379312693 165.0
35.384236549 151.0
35.389160405 149.0
35.394084261 145.0
35.399008117 147.0
35.403931973 160.0
35.408855829 162.0
35.413779685 174.0
35.418703541 167.0
35.423627397 153.0
35.428551253 164.0
35.433475109 167.0
35.438398965 152.0
35.443322821 173.0
35.448246677 171.0
35.453170533 157.0
35.458094389 174.0
35.463018245 162.0
35.467942101 146.0
35.472865957 149.0
35.477789813 157.0
35.482713669 168.0
35.487637525 171.0
35.492561381 169.0
35.497485237 161.0
35.502409093 171.0
35.507332949 197.0
35.512256805 172.0
35.517180661 153.0
35.522104517 162.0
35.527028373 179.0
35.531952229 174.0
35.536876085 167.0
35.541799941 184.0
35.546723797 200.0
35.551647653 171.0
35.556571509 174.0
35.561495365 186.0
35.566419221 182.0
35.571343077 178.0
35.576266933 203.0
35.581190789 165.0
35.586114645 187.0
35.591038501 199.0
35.595962357 159.0
35.600886213 190.0
35.605810069 162.0
35.610733925 208.0
35.615657781 187.0
35.620581637 182.0
35.625505493 194.0
35.630429349 211.0
35.635353205 183.0
35.640277061 183.0
35.645200917 196.0
35.650124773 201.0
35.655048629 200.0
35.659972485 202.0
35.664896341 190.0
35.669820197 192.0
35.674744053 202.0
35.679667909 225.0
35.684591765 206.0
35.689515621 202.0
35.694439477 198.0
35.699363333 180.0
35.704287189 230.0
35.709211045 222.0
35.714134901 207.0
35.719058757 224.0
35.723982613 215.0
35.728906469 241.0
35.733830325 213.0
35.738754181 240.0
35.743678037 261.0
35.748601893 210.0
35.753525750 258.0
35.758449606 242.0
35.763373462 238.0
35.768297318 228.0
35.773221174 241.0
35.778145030 213.0
35.783068886 265.0
35.787992742 258.0
35.792916598 263.0
35.797840454 278.0
35.802764310 235.0
35.807688166 280.0
35.812612022 285.0
35.817535878 278.0
35.822459734 298.0
35.827383590 342.0
35.832307446 299.0
35.837231302 275.0
35.842155158 326.0
35.847079014 309.0
35.852002870 338.0
35.856926726 301.0
35.861850582 320.0
35.866774438 337.0
35.871698294 335.0
35.876622150 328.0
35.881546006 343.0
35.886469862 363.0
35.891393718 379.0
35.896317574 336.0
35.901241430 355.0
35.906165286 375.0
35.911089142 424.0
35.916012998 416.0
35.920936854 438.0
35.925860710 388.0
35.930784566 495.0
35.935708422 429.0
35.940632278 474.0
35.945556134 456.0
35.950479990 510.0
35.955403846 505.0
35.960327702 498.0
35.965251558 541.0
35.970175414 532.0
35.975099270 597.0
35.980023126 533.0
35.984946982 562.0
35.989870838 649.0
35.994794694 629.0
35.999718550 689.0
36.004642406 670.0
36.009566262 770.0
36.014490118 759.0
36.019413974 798.0
36.024337830 843.0
36.029261686 997.0
36.034185542 967.0
36.039109398 1032.0
36.044033254 1085.0
36.048957110 1151.0
36.053880966 1160.0
36.058804822 1297.0
36.063728678 1327.0
36.068652534 1398.0
36.073576390 1571.0
36.078500246 1612.0
36.083424102 1731.0
36.088347958 1884.0
36.093271814 2055.0
36.098195670 2211.0
36.103119526 2279.0
36.108043382 2425.0
36.112967238 2659.0
36.117891094 2803.0
36.122814950 3005.0
36.127738806 3166.0
36.132662662 3356.0
36.137586518 3646.0
36.142510374 3730.0
36.147434230 4042.0
36.152358086 4124.0
36.157281942 4398.0
36.162205798 4660.0
36.167129654 4935.0
36.172053510 5205.0
36.176977366 5257.0
36.181901222 5552.0
36.186825078 5770.0
36.191748934 5903.0
36.196672790 6216.0
36.201596646 6453.0
36.206520502 6536.0
36.211444358 6615.0
36.216368214 6919.0
36.221292070 6862.0
36.226215926 7036.0
36.231139782 6962.0
36.236063638 7098.0
36.240987494 7112.0
36.245911350 7180.0
36.250835207 7323.0
36.255759063 7236.0
36.260682919 7128.0
36.265606775 7191.0
36.270530631 7233.0
36.275454487 7023.0
36.280378343 6997.0
36.285302199 6680.0
36.290226055 6694.0
36.295149911 6560.0
36.300073767 6358.0
36.304997623 6088.0
36.309921479 6078.0
36.314845335 5892.0
36.319769191 5709.0
36.324693047 5644.0
36.329616903 5303.0
36.334540759 5141.0
36.339464615 5005.0
36.344388471 4610.0
36.349312327 4558.0
36.354236183 4330.0
36.359160039 4203.0
36.364083895 3861.0
36.369007751 3759.0
36.373931607 3560.0
36.378855463 3395.0
36.383779319 3279.0
36.388703175 3159.0
36.393627031 2977.0
36.398550887 2847.0
36.403474743 2651.0
36.408398599 2410.0
36.413322455 2313.0
36.418246311 2155.0
36.423170167 2087.0
36.428094023 1959.0
36.433017879 2021.0
36.437941735 1859.0
36.442865591 1759.0
36.447789447 1583.0
36.452713303 1529.0
36.457637159 1449.0
36.462561015 1418.0
36.467484871 1298.0
36.472408727 1306.0
36.477332583 1191.0
36.482256439 1121.0
36.487180295 1147.0
36.492104151 1040.0
36.497028007 1081.0
36.501951863 949.0
36.506875719 995.0
36.511799575 900.0
36.516723431 916.0
36.521647287 896.0
36.526571143 834.0
36.531494999 825.0
36.536418855 814.0
36.541342711 779.0
36.546266567 791.0
36.551190423 773.0
36.556114279 763.0
36.561038135 721.0
36.565961991 732.0
36.570885847 725.0
36.575809703 676.0
36.580733559 674.0
36.585657415 648.0
36.590581271 633.0
36.595505127 645.0
36.600428983 558.0
36.605352839 643.0
36.610276695 594.0
36.615200551 639.0
36.620124407 542.0
36.625048263 587.0
36.629972119 546.0
36.634895975 543.0
36.639819831 541.0
36.644743687 555.0
36.649667543 554.0
36.654591399 539.0
36.659515255 546.0
36.664439111 544.0
36.669362967 525.0
36.674286823 504.0
36.679210679 504.0
36.684134535 468.0
36.689058391 492.0
36.693982247 488.0
36.698906103 480.0
36.703829959 478.0
36.708753815 511.0
36.713677671 489.0
36.718601527 473.0
36.723525383 503.0
36.728449239 492.0
36.733373095 450.0
36.738296951 537.0
36.743220807 532.0
36.748144663 520.0
36.753068520 504.0
36.757992376 483.0
36.762916232 471.0
36.767840088 473.0
36.772763944 459.0
36.777687800 495.0
36.782611656 532.0
36.787535512 433.0
36.792459368 486.0
36.797383224 490.0
36.802307080 464.0
36.807230936 519.0
36.812154792 500.0
36.817078648 490.0
36.822002504 448.0
36.826926360 494.0
36.831850216 471.0
36.836774072 472.0
36.841697928 516.0
36.846621784 491.0
36.851545640 483.0
36.856469496 523.0
36.861393352 526.0
36.866317208 475.0
36.871241064 464.0
36.876164920 505.0
36.881088776 539.0
36.886012632 511.0
36.890936488 529.0
36.895860344 529.0
36.900784200 455.0
36.905708056 499.0
36.910631912 519.0
36.915555768 561.0
36.920479624 508.0
36.925403480 553.0
36.930327336 491.0
36.935251192 529.0
36.940175048 524.0
36.945098904 561.0
36.950022760 548.0
36.954946616 538.0
36.959870472 548.0
36.964794328 563.0
36.969718184 544.0
36.974642040 545.0
36.979565896 554.0
36.984489752 555.0
36.989413608 534.0
36.994337464 572.0
36.999261320 558.0
37.004185176 583.0
37.009109032 571.0
37.014032888 575.0
37.018956744 571.0
37.023880600 599.0
37.028804456 591.0
37.033728312 573.0
37.038652168 556.0
37.043576024 596.0
37.048499880 579.0
37.053423736 623.0
37.058347592 580.0
37.063271448 670.0
37.068195304 633.0
37.073119160 615.0
37.078043016 616.0
37.082966872 627.0
37.087890728 632.0
37.092814584 629.0
37.097738440 621.0
37.102662296 691.0
37.107586152 674.0
37.112510008 640.0
37.117433864 651.0
37.122357720 651.0
37.127281576 654.0
37.132205432 628.0
37.137129288 658.0
37.142053144 676.0
37.146977000 688.0
37.151900856 649.0
37.156824712 677.0
37.161748568 700.0
37.166672424 740.0
37.171596280 646.0
37.176520136 688.0
37.181443992 683.0
37.186367848 696.0
37.191291704 746.0
37.196215560 704.0
37.201139416 714.0
37.206063272 690.0
37.210987128 743.0
37.215910984 747.0
37.220834840 745.0
37.225758696 757.0
37.230682552 739.0
37.235606408 763.0
37.240530264 783.0
37.245454120 803.0
37.250377977 793.0
37.255301833 780.0
37.260225689 765.0
37.265149545 789.0
37.270073401 804.0
37.274997257 824.0
37.279921113 907.0
37.284844969 890.0
37.289768825 896.0
37.294692681 891.0
37.299616537 902.0
37.304540393 899.0
37.309464249 1016.0
37.314388105 958.0
37.319311961 964.0
37.324235817 1012.0
37.329159673 991.0
37.334083529 1027.0
37.339007385 999.0
37.343931241 982.0
37.348855097 1027.0
37.353778953 1089.0
37.358702809 1089.0
37.363626665 1144.0
37.368550521 1076.0
37.373474377 1184.0
37.378398233 1168.0
37.383322089 1189.0
37.388245945 1182.0
37.393169801 1246.0
37.398093657 1230.0
37.403017513 1359.0
37.407941369 1272.0
37.412865225 1334.0
37.417789081 1253.0
37.422712937 1415.0
37.427636793 1405.0
37.432560649 1429.0
37.437484505 1432.0
37.442408361 1511.0
37.447332217 1485.0
37.452256073 1538.0
37.457179929 1562.0
37.462103785 1694.0
37.467027641 1710.0
37.471951497 1766.0
37.476875353 1866.0
37.481799209 1914.0
37.486723065 2247.0
37.491646921 2213.0
37.496570777 2680.0
37.501494633 2605.0
37.506418489 3200.0
37.511342345 3183.0
37.516266201 3582.0
37.521190057 3716.0
37.526113913 4204.0
37.531037769 4244.0
37.535961625 4597.0
37.540885481 4766.0
37.545809337 5126.0
37.550733193 5240.0
37.555657049 5290.0
37.560580905 5464.0
37.565504761 5352.0
37.570428617 5386.0
37.575352473 5355.0
37.580276329 5507.0
37.585200185 5484.0
37.590124041 5721.0
37.595047897 5675.0
37.599971753 5816.0
37.604895609 6073.0
37.609819465 6184.0
37.614743321 6695.0
37.619667177 6956.0
37.624591033 8198.0
37.629514889 8622.0
37.634438745 10296.0
37.639362601 10901.0
37.644286457 13355.0
37.649210313 14607.0
37.654134169 18964.0
37.659058025 21659.0
37.663981881 29602.0
37.668905737 38492.0
37.673829593 57785.0
37.678753449 93107.0
37.683677305 151308.0
37.688601161 222545.0
37.693525017 270979.0
37.698448873 306583.0
37.703372729 321461.0
37.708296585 337379.0
37.713220441 340412.0
37.718144297 345004.0
37.723068153 341470.0
37.727992009 336815.0
37.732915865 318274.0
37.737839721 281396.0
37.742763577 220477.0
37.747687433 144920.0
37.752611290 98766.0
37.757535146 66802.0
37.762459002 54496.0
37.767382858 48807.0
37.772306714 54293.0
37.777230570 69238.0
37.782154426 97145.0
37.787078282 124523.0
37.792002138 148298.0
37.796925994 161246.0
37.801849850 170333.0
37.806773706 174007.0
37.811697562 176688.0
37.816621418 175670.0
37.821545274 172105.0
37.826469130 166459.0
37.831392986 153431.0
37.836316842 132982.0
37.841240698 100436.0
37.846164554 70423.0
37.851088410 45795.0
37.856012266 31815.0
37.860936122 22341.0
37.865859978 17093.0
37.870783834 13395.0
37.875707690 11174.0
37.880631546 9368.0
37.885555402 8384.0
37.890479258 7032.0
37.895403114 6603.0
37.900326970 5938.0
37.905250826 5456.0
37.910174682 5106.0
37.915098538 4776.0
37.920022394 4164.0
37.924946250 4075.0
37.929870106 3894.0
37.934793962 3686.0
37.939717818 3382.0
37.944641674 3264.0
37.949565530 3093.0
37.954489386 2833.0
37.959413242 2748.0
37.964337098 2782.0
37.969260954 2661.0
37.974184810 2486.0
37.979108666 2331.0
37.984032522 2267.0
37.988956378 2186.0
37.993880234 2118.0
37.998804090 2070.0
38.003727946 2086.0
38.008651802 1961.0
38.013575658 1881.0
38.018499514 1777.0
38.023423370 1698.0
38.028347226 1698.0
38.033271082 1659.0
38.038194938 1632.0
38.043118794 1565.0
38.048042650 1586.0
38.052966506 1460.0
38.057890362 1387.0
38.062814218 1407.0
38.067738074 1316.0
38.072661930 1300.0
38.077585786 1302.0
38.082509642 1268.0
38.087433498 1323.0
38.092357354 1245.0
38.097281210 1278.0
38.102205066 1110.0
38.107128922 1124.0
38.112052778 1195.0
38.116976634 1113.0
38.121900490 1110.0
38.126824346 1110.0
38.131748202 1021.0
38.136672058 1009.0
38.141595914 1016.0
38.146519770 1038.0
38.151443626 1009.0
38.156367482 965.0
38.161291338 936.0
38.166215194 895.0
38.171139050 915.0
38.176062906 884.0
38.180986762 914.0
38.185910618 798.0
38.190834474 870.0
38.195758330 872.0
38.200682186 783.0
38.205606042 751.0
38.210529898 751.0
38.215453754 759.0
38.220377610 747.0
38.225301466 697.0
38.230225322 718.0
38.235149178 746.0
38.240073034 662.0
38.244996890 701.0
38.249920747 638.0
38.254844603 627.0
38.259768459 675.0
38.264692315 611.0
38.269616171 590.0
38.274540027 600.0
38.279463883 643.0
38.284387739 574.0
38.289311595 579.0
38.294235451 549.0
38.299159307 525.0
38.304083163 558.0
38.309007019 546.0
38.313930875 533.0
38.318854731 565.0
38.323778587 553.0
38.328702443 499.0
38.333626299 467.0
38.338550155 479.0
38.343474011 463.0
38.348397867 423.0
38.353321723 437.0
38.358245579 441.0
38.363169435 483.0
38.368093291 426.0
38.373017147 434.0
38.377941003 437.0
38.382864859 405.0
38.387788715 436.0
38.392712571 432.0
38.397636427 390.0
38.402560283 390.0
38.407484139 408.0
38.412407995 426.0
38.417331851 379.0
38.422255707 385.0
38.427179563 390.0
38.432103419 388.0
38.437027275 409.0
38.441951131 372.0
38.446874987 352.0
38.451798843 354.0
38.456722699 363.0
38.461646555 339.0
38.466570411 364.0
38.471494267 358.0
38.476418123 341.0
38.481341979 330.0
38.486265835 332.0
38.491189691 333.0
38.496113547 330.0
38.501037403 322.0
38.505961259 323.0
38.510885115 321.0
38.515808971 322.0
38.520732827 311.0
38.525656683 322.0
38.530580539 287.0
38.535504395 282.0
38.540428251 298.0
38.545352107 321.0
38.550275963 266.0
38.555199819 342.0
38.560123675 284.0
38.565047531 261.0
38.569971387 302.0
38.574895243 279.0
38.579819099 282.0
38.584742955 280.0
38.589666811 275.0
38.594590667 285.0
38.599514523 233.0
38.604438379 279.0
38.609362235 257.0
38.614286091 286.0
38.619209947 274.0
38.624133803 257.0
38.629057659 216.0
38.633981515 230.0
38.638905371 256.0
38.643829227 261.0
38.648753083 216.0
38.653676939 221.0
38.658600795 287.0
38.663524651 227.0
38.668448507 229.0
38.673372363 217.0
38.678296219 256.0
38.683220075 202.0
38.688143931 206.0
38.693067787 213.0
38.697991643 234.0
38.702915499 210.0
38.707839355 221.0
38.712763211 206.0
38.717687067 198.0
38.722610923 209.0
38.727534779 231.0
38.732458635 211.0
38.737382491 182.0
38.742306347 201.0
38.747230203 227.0
38.752154060 198.0
38.757077916 200.0
38.762001772 196.0
38.766925628 194.0
38.771849484 182.0
38.776773340 192.0
38.781697196 181.0
38.786621052 173.0
38.791544908 191.0
38.796468764 182.0
38.801392620 186.0
38.806316476 169.0
38.811240332 171.0
38.816164188 191.0
38.821088044 177.0
38.826011900 170.0
38.830935756 205.0
38.835859612 182.0
38.840783468 171.0
38.845707324 205.0
38.850631180 213.0
38.855555036 169.0
38.860478892 179.0
38.865402748 172.0
38.870326604 176.0
38.875250460 165.0
38.880174316 176.0
38.885098172 182.0
38.890022028 171.0
38.894945884 193.0
38.899869740 194.0
38.904793596 168.0
38.909717452 136.0
38.914641308 187.0
38.919565164 167.0
38.924489020 167.0
38.929412876 173.0
38.934336732 164.0
38.939260588 167.0
38.944184444 169.0
38.949108300 156.0
38.954032156 163.0
38.958956012 166.0
38.963879868 166.0
38.968803724 175.0
38.973727580 163.0
38.978651436 200.0
38.983575292 163.0
38.988499148 173.0
38.993423004 191.0
38.998346860 148.0
39.003270716 185.0
39.008194572 147.0
39.013118428 168.0
39.018042284 181.0
39.022966140 169.0
39.027889996 187.0
39.032813852 162.0
39.037737708 155.0
39.042661564 173.0
39.047585420 145.0
39.052509276 159.0
39.057433132 161.0
39.062356988 150.0
39.067280844 169.0
39.072204700 159.0
39.077128556 134.0
39.082052412 156.0
39.086976268 161.0
39.091900124 180.0
39.096823980 148.0
39.101747836 167.0
39.106671692 160.0
39.111595548 156.0
39.116519404 174.0
39.121443260 164.0
39.126367116 165.0
39.131290972 151.0
39.136214828 155.0
39.141138684 168.0
39.146062540 169.0
39.150986396 176.0
39.155910252 170.0
39.160834108 176.0
39.165757964 153.0
39.170681820 147.0
39.175605676 150.0
39.180529532 187.0
39.185453388 165.0
39.190377244 168.0
39.195301100 164.0
39.200224956 190.0
39.205148812 181.0
39.210072668 180.0
39.214996524 159.0
39.219920380 170.0
39.224844236 146.0
39.229768092 168.0
39.234691948 164.0
39.239615804 206.0
39.244539660 173.0
39.249463517 184.0
39.254387373 159.0
39.259311229 177.0
39.264235085 201.0
39.269158941 156.0
39.274082797 168.0
39.279006653 163.0
39.283930509 156.0
39.288854365 146.0
39.293778221 174.0
39.298702077 180.0
39.303625933 167.0
39.308549789 161.0
39.313473645 157.0
39.318397501 157.0
39.323321357 170.0
39.328245213 185.0
39.333169069 160.0
39.338092925 185.0
39.343016781 160.0
39.347940637 205.0
39.352864493 174.0
39.357788349 166.0
39.362712205 153.0
39.367636061 188.0
39.372559917 187.0
39.377483773 184.0
39.382407629 176.0
39.387331485 195.0
39.392255341 199.0
39.397179197 190.0
39.402103053 162.0
39.407026909 206.0
39.411950765 177.0
39.416874621 174.0
39.421798477 170.0
39.426722333 165.0
39.431646189 190.0
39.436570045 193.0
39.441493901 206.0
39.446417757 192.0
39.451341613 192.0
39.456265469 159.0
39.461189325 193.0
39.466113181 182.0
39.471037037 214.0
39.475960893 190.0
39.480884749 203.0
39.485808605 201.0
39.490732461 222.0
39.495656317 174.0
39.500580173 192.0
39.505504029 170.0
39.510427885 184.0
39.515351741 195.0
39.520275597 205.0
39.525199453 211.0
39.530123309 193.0
39.535047165 187.0
39.539971021 188.0
39.544894877 208.0
39.549818733 174.0
39.554742589 195.0
39.559666445 186.0
39.564590301 184.0
39.569514157 202.0
39.574438013 175.0
39.579361869 194.0
39.584285725 204.0
39.589209581 182.0
39.594133437 193.0
39.599057293 192.0
39.603981149 194.0
39.608905005 188.0
39.613828861 184.0
39.618752717 180.0
39.623676573 192.0
39.628600429 198.0
39.633524285 202.0
39.638448141 196.0
39.643371997 205.0
39.648295853 204.0
39.653219709 191.0
39.658143565 168.0
39.663067421 168.0
39.667991277 212.0
39.672915133 189.0
39.677838989 173.0
39.682762845 183.0
39.687686701 207.0
39.692610557 170.0
39.697534413 161.0
39.702458269 165.0
39.707382125 193.0
39.712305981 175.0
39.717229837 172.0
39.722153693 185.0
39.727077549 201.0
39.732001405 166.0
39.736925261 174.0
39.741849117 177.0
39.746772973 165.0
39.751696830 187.0
39.756620686 212.0
39.761544542 162.0
39.766468398 180.0
39.771392254 171.0
39.776316110 182.0
39.781239966 172.0
39.786163822 157.0
39.791087678 172.0
39.796011534 157.0
39.800935390 146.0
39.805859246 164.0
39.810783102 172.0
39.815706958 170.0
39.820630814 167.0
39.825554670 156.0
39.830478526 152.0
39.835402382 147.0
39.840326238 167.0
39.845250094 144.0
39.850173950 175.0
39.855097806 151.0
39.860021662 142.0
39.864945518 170.0
39.869869374 166.0
39.874793230 152.0
39.879717086 137.0
39.884640942 140.0
39.889564798 141.0
39.894488654 146.0
39.899412510 159.0
39.904336366 154.0
39.909260222 148.0
39.914184078 130.0
39.919107934 123.0
39.924031790 172.0
39.928955646 127.0
39.933879502 162.0
39.938803358 129.0
39.943727214 155.0
39.948651070 151.0
39.953574926 121.0
39.958498782 137.0
39.963422638 125.0
39.968346494 116.0
39.973270350 125.0
39.978194206 134.0
39.983118062 157.0
39.988041918 134.0
39.992965774 144.0
39.997889630 122.0
