30.002461930 53.0
30.007385786 37.0
30.012309642 46.0
30.017233498 47.0
30.022157354 52.0
30.027081210 44.0
30.032005066 61.0
30.036928922 51.0
30.041852778 54.0
30.046776634 53.0
30.051700490 56.0
30.056624346 63.0
30.061548202 51.0
30.066472058 58.0
30.071395914 40.0
30.076319770 49.0
30.081243626 54.0
30.086167482 64.0
30.091091338 48.0
30.096015194 52.0
30.100939050 47.0
30.105862906 58.0
30.110786762 50.0
30.115710618 45.0
30.120634474 61.0
30.125558330 65.0
30.130482186 44.0
30.135406042 48.0
30.140329898 63.0
30.145253754 54.0
30.150177610 46.0
30.155101466 50.0
30.160025322 60.0
30.164949178 42.0
30.169873034 63.0
30.174796890 67.0
30.179720746 67.0
30.184644602 48.0
30.189568458 56.0
30.194492314 59.0
30.199416170 52.0
30.204340026 52.0
30.209263882 48.0
30.214187738 51.0
30.219111594 58.0
30.224035450 47.0
30.228959306 45.0
30.233883162 48.0
30.238807018 53.0
30.243730874 54.0
30.248654730 39.0
30.253578587 68.0
30.258502443 58.0
30.263426299 50.0
30.268350155 48.0
30.273274011 53.0
30.278197867 52.0
30.283121723 65.0
30.288045579 45.0
30.292969435 55.0
30.297893291 52.0
30.302817147 58.0
30.307741003 45.0
30.312664859 51.0
30.317588715 62.0
30.322512571 42.0
30.327436427 55.0
30.332360283 45.0
30.337284139 57.0
30.342207995 65.0
30.347131851 57.0
30.352055707 49.0
30.356979563 53.0
30.361903419 64.0
30.366827275 56.0
30.371751131 55.0
30.376674987 52.0
30.381598843 53.0
30.386522699 56.0
30.391446555 41.0
30.396370411 51.0
30.401294267 40.0
30.406218123 51.0
30.411141979 43.0
30.416065835 50.0
30.420989691 47.0
30.425913547 57.0
30.430837403 50.0
30.435761259 47.0
30.440685115 49.0
30.445608971 52.0
30.450532827 38.0
30.455456683 51.0
30.460380539 46.0
30.465304395 36.0
30.470228251 61.0
30.475152107 57.0
30.480075963 61.0
30.484999819 50.0
30.489923675 53.0
30.494847531 57.0
30.499771387 57.0
30.504695243 55.0
30.509619099 71.0
30.514542955 53.0
30.519466811 50.0
30.524390667 58.0
30.529314523 52.0
30.534238379 47.0
30.539162235 64.0
30.544086091 49.0
30.549009947 59.0
30.553933803 54.0
30.558857659 60.0
30.563781515 57.0
30.568705371 53.0
30.573629227 55.0
30.578553083 47.0
30.583476939 57.0
30.588400795 55.0
30.593324651 54.0
30.598248507 57.0
30.603172363 52.0
30.608096219 55.0
30.613020075 47.0
30.617943931 63.0
30.622867787 63.0
30.627791643 54.0
30.632715499 59.0
30.637639355 48.0
30.642563211 46.0
30.647487067 57.0
30.652410923 46.0
30.657334779 49.0
30.662258635 39.0
30.667182491 54.0
30.672106347 49.0
30.677030203 50.0
30.681954059 49.0
30.686877915 51.0
30.691801771 64.0
30.696725627 54.0
30.701649483 58.0
30.706573339 48.0
30.711497195 55.0
30.716421051 52.0
30.721344907 50.0
30.726268763 63.0
30.731192619 50.0
30.736116475 50.0
30.741040331 53.0
30.745964187 54.0
30.750888043 44.0
30.755811900 53.0
30.760735756 53.0
30.765659612 65.0
30.770583468 48.0
30.775507324 57.0
30.780431180 54.0
30.785355036 47.0
30.790278892 63.0
30.795202748 73.0
30.800126604 60.0
30.805050460 51.0
30.809974316 50.0
30.814898172 58.0
30.819822028 58.0
30.824745884 57.0
30.829669740 54.0
30.834593596 52.0
30.839517452 52.0
30.844441308 43.0
30.849365164 58.0
30.854289020 52.0
30.859212876 42.0
30.864136732 59.0
30.869060588 54.0
30.873984444 49.0
30.878908300 62.0
30.883832156 68.0
30.888756012 43.0
30.893679868 60.0
30.898603724 55.0
30.903527580 52.0
30.908451436 45.0
30.913375292 54.0
30.918299148 50.0
30.923223004 47.0
30.928146860 61.0
30.933070716 52.0
30.937994572 53.0
30.942918428 51.0
30.947842284 51.0
30.952766140 49.0
30.957689996 52.0
30.962613852 45.0
30.967537708 54.0
30.972461564 55.0
30.977385420 59.0
30.982309276 57.0
30.987233132 50.0
30.992156988 42.0
30.997080844 48.0
31.002004700 53.0
31.006928556 62.0
31.011852412 59.0
31.016776268 45.0
31.021700124 50.0
31.026623980 50.0
31.031547836 58.0
31.036471692 51.0
31.041395548 50.0
31.046319404 58.0
31.051243260 40.0
31.056167116 47.0
31.061090972 58.0
31.066014828 69.0
31.070938684 44.0
31.075862540 64.0
31.080786396 46.0
31.085710252 48.0
31.090634108 48.0
31.095557964 47.0
31.100481820 44.0
31.105405676 56.0
31.110329532 59.0
31.115253388 51.0
31.120177244 49.0
31.125101100 41.0
31.130024956 61.0
31.134948812 46.0
31.139872668 57.0
31.144796524 44.0
31.149720380 54.0
31.154644236 59.0
31.159568092 61.0
31.164491948 37.0
31.169415804 59.0
31.174339660 51.0
31.179263516 52.0
31.184187372 56.0
31.189111228 46.0
31.194035084 40.0
31.198958940 42.0
31.203882796 57.0
31.208806652 61.0
31.213730508 49.0
31.218654364 54.0
31.223578220 67.0
31.228502076 67.0
31.233425932 45.0
31.238349788 47.0
31.243273644 49.0
31.248197500 58.0
31.253121357 59.0
31.258045213 62.0
31.262969069 53.0
31.267892925 60.0
31.272816781 62.0
31.277740637 30.0
31.282664493 53.0
31.287588349 53.0
31.292512205 63.0
31.297436061 58.0
31.302359917 60.0
31.307283773 60.0
31.312207629 54.0
31.317131485 64.0
31.322055341 47.0
31.326979197 60.0
31.331903053 53.0
31.336826909 45.0
31.341750765 53.0
31.346674621 50.0
31.351598477 55.0
31.356522333 43.0
31.361446189 58.0
31.366370045 62.0
31.371293901 48.0
31.376217757 53.0
31.381141613 67.0
31.386065469 56.0
31.390989325 49.0
31.395913181 61.0
31.400837037 54.0
31.405760893 58.0
31.410684749 60.0
31.415608605 37.0
31.420532461 56.0
31.425456317 57.0
31.430380173 70.0
31.435304029 38.0
31.440227885 50.0
31.445151741 48.0
31.450075597 47.0
31.454999453 62.0
31.459923309 56.0
31.464847165 49.0
31.469771021 41.0
31.474694877 55.0
31.479618733 58.0
31.484542589 44.0
31.489466445 55.0
31.494390301 49.0
31.499314157 47.0
31.504238013 53.0
31.509161869 45.0
31.514085725 59.0
31.519009581 54.0
31.523933437 44.0
31.528857293 46.0
31.533781149 54.0
31.538705005 59.0
31.543628861 44.0
31.548552717 58.0
31.553476573 56.0
31.558400429 39.0
31.563324285 41.0
31.568248141 46.0
31.573171997 49.0
31.578095853 48.0
31.583019709 62.0
31.587943565 59.0
31.592867421 36.0
31.597791277 49.0
31.602715133 53.0
31.607638989 47.0
31.612562845 48.0
31.617486701 53.0
31.622410557 48.0
31.627334413 57.0
31.632258269 66.0
31.637182125 55.0
31.642105981 33.0
31.647029837 51.0
31.651953693 50.0
31.656877549 53.0
31.661801405 44.0
31.666725261 59.0
31.671649117 46.0
31.676572973 59.0
31.681496829 47.0
31.686420685 45.0
31.691344541 50.0
31.696268397 51.0
31.701192253 48.0
31.706116109 50.0
31.711039965 51.0
31.715963821 43.0
31.720887677 71.0
31.725811533 49.0
31.730735389 56.0
31.735659245 52.0
31.740583101 42.0
31.745506957 50.0
31.750430813 58.0
31.755354670 48.0
31.760278526 63.0
31.765202382 47.0
31.770126238 49.0
31.775050094 51.0
31.779973950 55.0
31.784897806 54.0
31.789821662 54.0
31.794745518 58.0
31.799669374 56.0
31.804593230 57.0
31.809517086 70.0
31.814440942 53.0
31.819364798 52.0
31.824288654 41.0
31.829212510 45.0
31.834136366 54.0
31.839060222 70.0
31.843984078 68.0
31.848907934 49.0
31.853831790 64.0
31.858755646 62.0
31.863679502 60.0
31.868603358 53.0
31.873527214 68.0
31.878451070 57.0
31.883374926 49.0
31.888298782 42.0
31.893222638 55.0
31.898146494 43.0
31.903070350 59.0
31.907994206 52.0
31.912918062 54.0
31.917841918 47.0
31.922765774 59.0
31.927689630 66.0
31.932613486 54.0
31.937537342 51.0
31.942461198 52.0
31.947385054 75.0
31.952308910 66.0
31.957232766 55.0
31.962156622 54.0
31.967080478 60.0
31.972004334 56.0
31.976928190 58.0
31.981852046 69.0
31.986775902 49.0
31.991699758 61.0
31.996623614 51.0
32.001547470 58.0
32.006471326 60.0
32.011395182 46.0
32.016319038 52.0
32.021242894 51.0
32.026166750 63.0
32.031090606 58.0
32.036014462 61.0
32.040938318 57.0
32.045862174 55.0
32.050786030 73.0
32.055709886 50.0
32.060633742 79.0
32.065557598 61.0
32.070481454 71.0
32.075405310 73.0
32.080329166 85.0
32.085253022 64.0
32.090176878 64.0
32.095100734 67.0
32.100024590 78.0
32.104948446 74.0
32.109872302 71.0
32.114796158 100.0
32.119720014 98.0
32.124643870 88.0
32.129567726 112.0
32.134491582 87.0
32.139415438 119.0
32.144339294 101.0
32.149263150 147.0
32.154187006 125.0
32.159110862 122.0
32.164034718 102.0
32.168958574 121.0
32.173882430 108.0
32.178806286 120.0
32.183730142 121.0
32.188653998 93.0
32.193577854 84.0
32.198501710 90.0
32.203425566 97.0
32.208349422 82.0
32.213273278 77.0
32.218197134 69.0
32.223120990 87.0
32.228044846 82.0
32.232968702 72.0
32.237892558 76.0
32.242816414 82.0
32.247740270 78.0
32.252664127 65.0
32.257587983 67.0
32.262511839 80.0
32.267435695 61.0
32.272359551 66.0
32.277283407 61.0
32.282207263 77.0
32.287131119 59.0
32.292054975 62.0
32.296978831 62.0
32.301902687 51.0
32.306826543 62.0
32.311750399 81.0
32.316674255 69.0
32.321598111 63.0
32.326521967 60.0
32.331445823 50.0
32.336369679 69.0
32.341293535 62.0
32.346217391 54.0
32.351141247 70.0
32.356065103 78.0
32.360988959 56.0
32.365912815 52.0
32.370836671 60.0
32.375760527 53.0
32.380684383 61.0
32.385608239 62.0
32.390532095 57.0
32.395455951 56.0
32.400379807 49.0
32.405303663 49.0
32.410227519 64.0
32.415151375 52.0
32.420075231 59.0
32.424999087 57.0
32.429922943 63.0
32.434846799 47.0
32.439770655 53.0
32.444694511 45.0
32.449618367 58.0
32.454542223 52.0
32.459466079 58.0
32.464389935 52.0
32.469313791 59.0
32.474237647 56.0
32.479161503 49.0
32.484085359 57.0
32.489009215 56.0
32.493933071 54.0
32.498856927 53.0
32.503780783 44.0
32.508704639 66.0
32.513628495 42.0
32.518552351 66.0
32.523476207 48.0
32.528400063 55.0
32.533323919 52.0
32.538247775 63.0
32.543171631 60.0
32.548095487 56.0
32.553019343 35.0
32.557943199 56.0
32.562867055 56.0
32.567790911 42.0
32.572714767 62.0
32.577638623 40.0
32.582562479 46.0
32.587486335 50.0
32.592410191 57.0
32.597334047 78.0
32.602257903 59.0
32.607181759 57.0
32.612105615 47.0
32.617029471 60.0
32.621953327 58.0
32.626877183 46.0
32.631801039 47.0
32.636724895 54.0
32.641648751 54.0
32.646572607 52.0
32.651496463 51.0
32.656420319 51.0
32.661344175 53.0
32.666268031 59.0
32.671191887 47.0
32.676115743 55.0
32.681039599 61.0
32.685963455 45.0
32.690887311 50.0
32.695811167 54.0
32.700735023 61.0
32.705658879 49.0
32.710582735 45.0
32.715506591 47.0
32.720430447 74.0
32.725354303 67.0
32.730278159 58.0
32.735202015 50.0
32.740125871 58.0
32.745049727 60.0
32.749973583 52.0
32.754897440 71.0
32.759821296 52.0
32.764745152 58.0
32.769669008 61.0
32.774592864 66.0
32.779516720 44.0
32.784440576 53.0
32.789364432 52.0
32.794288288 50.0
32.799212144 52.0
32.804136000 61.0
32.809059856 62.0
32.813983712 55.0
32.818907568 55.0
32.823831424 59.0
32.828755280 50.0
32.833679136 50.0
32.838602992 58.0
32.843526848 39.0
32.848450704 55.0
32.853374560 55.0
32.858298416 55.0
32.863222272 69.0
32.868146128 46.0
32.873069984 59.0
32.877993840 50.0
32.882917696 37.0
32.887841552 55.0
32.892765408 74.0
32.897689264 48.0
32.902613120 50.0
32.907536976 57.0
32.912460832 68.0
32.917384688 49.0
32.922308544 41.0
32.927232400 66.0
32.932156256 68.0
32.937080112 63.0
32.942003968 51.0
32.946927824 52.0
32.951851680 41.0
32.956775536 64.0
32.961699392 71.0
32.966623248 65.0
32.971547104 54.0
32.976470960 48.0
32.981394816 44.0
32.986318672 45.0
32.991242528 57.0
32.996166384 50.0
33.001090240 56.0
33.006014096 59.0
33.010937952 45.0
33.015861808 64.0
33.020785664 69.0
33.025709520 50.0
33.030633376 73.0
33.035557232 44.0
33.040481088 61.0
33.045404944 54.0
33.050328800 66.0
33.055252656 68.0
33.060176512 42.0
33.065100368 64.0
33.070024224 67.0
33.074948080 64.0
33.079871936 49.0
33.084795792 57.0
33.089719648 53.0
33.094643504 69.0
33.099567360 59.0
33.104491216 58.0
33.109415072 54.0
33.114338928 54.0
33.119262784 61.0
33.124186640 70.0
33.129110496 60.0
33.134034352 61.0
33.138958208 57.0
33.143882064 67.0
33.148805920 59.0
33.153729776 57.0
33.158653632 49.0
33.163577488 56.0
33.168501344 74.0
33.173425200 55.0
33.178349056 68.0
33.183272912 53.0
33.188196768 59.0
33.193120624 48.0
33.198044480 44.0
33.202968336 53.0
33.207892192 54.0
33.212816048 65.0
33.217739904 59.0
33.222663760 60.0
33.227587616 56.0
33.232511472 49.0
33.237435328 60.0
33.242359184 62.0
33.247283040 54.0
33.252206897 68.0
33.257130753 47.0
33.262054609 63.0
33.266978465 51.0
33.271902321 45.0
33.276826177 54.0
33.281750033 59.0
33.286673889 64.0
33.291597745 52.0
33.296521601 63.0
33.301445457 59.0
33.306369313 59.0
33.311293169 65.0
33.316217025 71.0
33.321140881 56.0
33.326064737 52.0
33.330988593 52.0
33.335912449 55.0
33.340836305 68.0
33.345760161 54.0
33.350684017 68.0
33.355607873 69.0
33.360531729 48.0
33.365455585 69.0
33.370379441 54.0
33.375303297 49.0
33.380227153 49.0
33.385151009 66.0
33.390074865 51.0
33.394998721 68.0
33.399922577 63.0
33.404846433 56.0
33.409770289 53.0
33.414694145 57.0
33.419618001 78.0
33.424541857 51.0
33.429465713 62.0
33.434389569 44.0
33.439313425 50.0
33.444237281 52.0
33.449161137 68.0
33.454084993 60.0
33.459008849 61.0
33.463932705 46.0
33.468856561 53.0
33.473780417 61.0
33.478704273 60.0
33.483628129 58.0
33.488551985 65.0
33.493475841 49.0
33.498399697 53.0
33.503323553 72.0
33.508247409 61.0
33.513171265 51.0
33.518095121 61.0
33.523018977 56.0
33.527942833 56.0
33.532866689 53.0
33.537790545 56.0
33.542714401 45.0
33.547638257 61.0
33.552562113 58.0
33.557485969 57.0
33.562409825 64.0
33.567333681 64.0
33.572257537 61.0
33.577181393 62.0
33.582105249 57.0
33.587029105 49.0
33.591952961 59.0
33.596876817 60.0
33.601800673 76.0
33.606724529 51.0
33.611648385 54.0
33.616572241 55.0
33.621496097 56.0
33.626419953 61.0
33.631343809 63.0
33.636267665 55.0
33.641191521 67.0
33.646115377 65.0
33.651039233 67.0
33.655963089 55.0
33.660886945 66.0
33.665810801 63.0
33.670734657 70.0
33.675658513 58.0
33.680582369 52.0
33.685506225 78.0
33.690430081 60.0
33.695353937 67.0
33.700277793 54.0
33.705201649 68.0
33.710125505 61.0
33.715049361 71.0
33.719973217 55.0
33.724897073 80.0
33.729820929 59.0
33.734744785 73.0
33.739668641 71.0
33.744592497 54.0
33.749516353 57.0
33.754440210 56.0
33.759364066 62.0
33.764287922 60.0
33.769211778 61.0
33.774135634 67.0
33.779059490 61.0
33.783983346 60.0
33.788907202 58.0
33.793831058 59.0
33.798754914 64.0
33.803678770 79.0
33.808602626 72.0
33.813526482 70.0
33.818450338 69.0
33.823374194 67.0
33.828298050 81.0
33.833221906 81.0
33.838145762 70.0
33.843069618 80.0
33.847993474 75.0
33.852917330 64.0
33.857841186 85.0
33.862765042 95.0
33.867688898 80.0
33.872612754 85.0
33.877536610 81.0
33.882460466 75.0
33.887384322 90.0
33.892308178 114.0
33.897232034 127.0
33.902155890 138.0
33.907079746 158.0
33.912003602 175.0
33.916927458 278.0
33.921851314 345.0
33.926775170 450.0
33.931699026 594.0
33.936622882 662.0
33.941546738 698.0
33.946470594 773.0
33.951394450 714.0
33.956318306 554.0
33.961242162 477.0
33.966166018 454.0
33.971089874 322.0
33.976013730 208.0
33.980937586 161.0
33.985861442 182.0
33.990785298 155.0
33.995709154 121.0
34.000633010 111.0
34.005556866 109.0
34.010480722 109.0
34.015404578 89.0
34.020328434 81.0
34.025252290 97.0
34.030176146 80.0
34.035100002 67.0
34.040023858 86.0
34.044947714 92.0
34.049871570 85.0
34.054795426 90.0
34.059719282 77.0
34.064643138 96.0
34.069566994 85.0
34.074490850 79.0
34.079414706 80.0
34.084338562 86.0
34.089262418 77.0
34.094186274 87.0
34.099110130 82.0
34.104033986 88.0
34.108957842 87.0
34.113881698 69.0
34.118805554 78.0
34.123729410 86.0
34.128653266 79.0
34.133577122 92.0
34.138500978 62.0
34.143424834 73.0
34.148348690 80.0
34.153272546 75.0
34.158196402 67.0
34.163120258 65.0
34.168044114 71.0
34.172967970 81.0
34.177891826 82.0
34.182815682 77.0
34.187739538 66.0
34.192663394 79.0
34.197587250 83.0
34.202511106 72.0
34.207434962 79.0
34.212358818 67.0
34.217282674 55.0
34.222206530 80.0
34.227130386 70.0
34.232054242 70.0
34.236978098 74.0
34.241901954 75.0
34.246825810 76.0
34.251749667 72.0
34.256673523 74.0
34.261597379 68.0
34.266521235 83.0
34.271445091 78.0
34.276368947 72.0
34.281292803 66.0
34.286216659 77.0
34.291140515 75.0
34.296064371 89.0
34.300988227 75.0
34.305912083 75.0
34.310835939 54.0
34.315759795 83.0
34.320683651 84.0
34.325607507 75.0
34.330531363 66.0
34.335455219 81.0
34.340379075 72.0
34.345302931 66.0
34.350226787 64.0
34.355150643 79.0
34.360074499 78.0
34.364998355 65.0
34.369922211 59.0
34.374846067 72.0
34.379769923 70.0
34.384693779 75.0
34.389617635 78.0
34.394541491 89.0
34.399465347 95.0
34.404389203 81.0
34.409313059 77.0
34.414236915 62.0
34.419160771 82.0
34.424084627 98.0
34.429008483 79.0
34.433932339 81.0
34.438856195 73.0
34.443780051 90.0
34.448703907 84.0
34.453627763 79.0
34.458551619 79.0
34.463475475 74.0
34.468399331 73.0
34.473323187 82.0
34.478247043 91.0
34.483170899 80.0
34.488094755 80.0
34.493018611 82.0
34.497942467 79.0
34.502866323 84.0
34.507790179 64.0
34.512714035 80.0
34.517637891 74.0
34.522561747 82.0
34.527485603 85.0
34.532409459 84.0
34.537333315 84.0
34.542257171 108.0
34.547181027 82.0
34.552104883 61.0
34.557028739 77.0
34.561952595 68.0
34.566876451 72.0
34.571800307 78.0
34.576724163 88.0
34.581648019 75.0
34.586571875 78.0
34.591495731 71.0
34.596419587 92.0
34.601343443 93.0
34.606267299 86.0
34.611191155 95.0
34.616115011 86.0
34.621038867 86.0
34.625962723 103.0
34.630886579 74.0
34.635810435 80.0
34.640734291 81.0
34.645658147 91.0
34.650582003 83.0
34.655505859 101.0
34.660429715 87.0
34.665353571 85.0
34.670277427 91.0
34.675201283 87.0
34.680125139 79.0
34.685048995 92.0
34.689972851 84.0
34.694896707 76.0
34.699820563 78.0
34.704744419 91.0
34.709668275 92.0
34.714592131 95.0
34.719515987 118.0
34.724439843 87.0
34.729363699 84.0
34.734287555 101.0
34.739211411 95.0
34.744135267 93.0
34.749059123 89.0
34.753982980 87.0
34.758906836 85.0
34.763830692 111.0
34.768754548 108.0
34.773678404 106.0
34.778602260 97.0
34.783526116 81.0
34.788449972 94.0
34.793373828 91.0
34.798297684 97.0
34.803221540 111.0
34.808145396 101.0
34.813069252 105.0
34.817993108 74.0
34.822916964 90.0
34.827840820 106.0
34.832764676 97.0
34.837688532 102.0
34.842612388 106.0
34.847536244 121.0
34.852460100 105.0
34.857383956 87.0
34.862307812 107.0
34.867231668 107.0
34.872155524 112.0
34.877079380 105.0
34.882003236 105.0
34.886927092 98.0
34.891850948 113.0
34.896774804 111.0
34.901698660 118.0
34.906622516 124.0
34.911546372 107.0
34.916470228 115.0
34.921394084 107.0
34.926317940 114.0
34.931241796 111.0
34.936165652 94.0
34.941089508 113.0
34.946013364 132.0
34.950937220 124.0
34.955861076 122.0
34.960784932 128.0
34.965708788 120.0
34.970632644 114.0
34.975556500 120.0
34.980480356 139.0
34.985404212 137.0
34.990328068 126.0
34.995251924 127.0
35.000175780 134.0
35.005099636 122.0
35.010023492 128.0
35.014947348 129.0
35.019871204 143.0
35.024795060 140.0
35.029718916 147.0
35.034642772 137.0
35.039566628 111.0
35.044490484 153.0
35.049414340 131.0
35.054338196 157.0
35.059262052 152.0
35.064185908 176.0
35.069109764 128.0
35.074033620 125.0
35.078957476 139.0
35.083881332 134.0
35.088805188 133.0
35.093729044 162.0
35.098652900 141.0
35.103576756 148.0
35.108500612 154.0
35.113424468 151.0
35.118348324 162.0
35.123272180 147.0
35.128196036 146.0
35.133119892 171.0
35.138043748 139.0
35.142967604 151.0
35.147891460 153.0
35.152815316 175.0
35.157739172 161.0
35.162663028 173.0
35.167586884 175.0
35.172510740 156.0
35.177434596 167.0
35.182358452 201.0
35.187282308 184.0
35.192206164 177.0
35.197130020 181.0
35.202053876 160.0
35.206977732 201.0
35.211901588 183.0
35.216825444 158.0
35.221749300 204.0
35.226673156 199.0
35.231597012 209.0
35.236520868 213.0
35.241444724 193.0
35.246368580 214.0
35.251292437 224.0
35.256216293 219.0
35.261140149 233.0
35.266064005 223.0
35.270987861 240.0
35.275911717 234.0
35.280835573 267.0
35.285759429 224.0
35.290683285 255.0
35.295607141 277.0
35.300530997 231.0
35.305454853 232.0
35.310378709 268.0
35.315302565 257.0
35.320226421 280.0
35.325150277 274.0
35.330074133 313.0
35.334997989 281.0
35.339921845 300.0
35.344845701 299.0
35.349769557 306.0
35.354693413 313.0
35.359617269 333.0
35.364541125 371.0
35.369464981 339.0
35.374388837 361.0
35.379312693 334.0
35.384236549 381.0
35.389160405 350.0
35.394084261 383.0
35.399008117 387.0
35.403931973 395.0
35.408855829 393.0
35.413779685 470.0
35.418703541 452.0
35.423627397 463.0
35.428551253 500.0
35.433475109 471.0
35.438398965 490.0
35.443322821 502.0
35.448246677 573.0
35.453170533 577.0
35.458094389 581.0
35.463018245 597.0
35.467942101 628.0
35.472865957 644.0
35.477789813 699.0
35.482713669 708.0
35.487637525 795.0
35.492561381 775.0
35.497485237 906.0
35.502409093 903.0
35.507332949 907.0
35.512256805 1026.0
35.517180661 1077.0
35.522104517 1154.0
35.527028373 1124.0
35.531952229 1277.0
35.536876085 1370.0
35.541799941 1456.0
35.546723797 1585.0
35.551647653 1675.0
35.556571509 1800.0
35.561495365 1830.0
35.566419221 1943.0
35.571343077 2174.0
35.576266933 2385.0
35.581190789 2603.0
35.586114645 2740.0
35.591038501 2988.0
35.595962357 3280.0
35.600886213 3580.0
35.605810069 3911.0
35.610733925 4155.0
35.615657781 4754.0
35.620581637 5258.0
35.625505493 5623.0
35.630429349 6211.0
35.635353205 7041.0
35.640277061 7475.0
35.645200917 8424.0
35.650124773 9357.0
35.655048629 10191.0
35.659972485 11322.0
35.664896341 12243.0
35.669820197 13173.0
35.674744053 14215.0
35.679667909 15210.0
35.684591765 15880.0
35.689515621 16710.0
35.694439477 17524.0
35.699363333 17602.0
35.704287189 17950.0
35.709211045 17909.0
35.714134901 17926.0
35.719058757 17603.0
35.723982613 17085.0
35.728906469 16471.0
35.733830325 16198.0
35.738754181 15776.0
35.743678037 15271.0
35.748601893 14819.0
35.753525750 14637.0
35.758449606 14165.0
35.763373462 13946.0
35.768297318 13775.0
35.773221174 13594.0
35.778145030 13509.0
35.783068886 13474.0
35.787992742 13277.0
35.792916598 12612.0
35.797840454 12209.0
35.802764310 11612.0
35.807688166 11271.0
35.812612022 10704.0
35.817535878 10063.0
35.822459734 9460.0
35.827383590 8625.0
35.832307446 8042.0
35.837231302 7683.0
35.842155158 7081.0
35.847079014 6588.0
35.852002870 6042.0
35.856926726 5642.0
35.861850582 5265.0
35.866774438 4940.0
35.871698294 4384.0
35.876622150 4203.0
35.881546006 3962.0
35.886469862 3654.0
35.891393718 3500.0
35.896317574 3262.0
35.901241430 2921.0
35.906165286 2775.0
35.911089142 2604.0
35.916012998 2409.0
35.920936854 2399.0
35.925860710 2119.0
35.930784566 2088.0
35.935708422 1971.0
35.940632278 1821.0
35.945556134 1658.0
35.950479990 1676.0
35.955403846 1471.0
35.960327702 1513.0
35.965251558 1447.0
35.970175414 1432.0
35.975099270 1364.0
35.980023126 1239.0
35.984946982 1192.0
35.989870838 1166.0
35.994794694 1122.0
35.999718550 1079.0
36.004642406 1053.0
36.009566262 1024.0
36.014490118 955.0
36.019413974 997.0
36.024337830 898.0
36.029261686 952.0
36.034185542 875.0
36.039109398 839.0
36.044033254 836.0
36.048957110 786.0
36.053880966 768.0
36.058804822 741.0
36.063728678 737.0
36.068652534 772.0
36.073576390 717.0
36.078500246 691.0
36.083424102 664.0
36.088347958 649.0
36.093271814 672.0
36.098195670 626.0
36.103119526 668.0
36.108043382 629.0
36.112967238 634.0
36.117891094 550.0
36.122814950 567.0
36.127738806 531.0
36.132662662 502.0
36.137586518 513.0
36.142510374 497.0
36.147434230 471.0
36.152358086 506.0
36.157281942 472.0
36.162205798 474.0
36.167129654 473.0
36.172053510 418.0
36.176977366 408.0
36.181901222 410.0
36.186825078 400.0
36.191748934 387.0
36.196672790 390.0
36.201596646 349.0
36.206520502 393.0
36.211444358 358.0
36.216368214 377.0
36.221292070 379.0
36.226215926 327.0
36.231139782 362.0
36.236063638 348.0
36.240987494 343.0
36.245911350 313.0
36.250835207 305.0
36.255759063 316.0
36.260682919 290.0
36.265606775 279.0
36.270530631 272.0
36.275454487 292.0
36.280378343 278.0
36.285302199 242.0
36.290226055 230.0
36.295149911 270.0
36.300073767 224.0
36.304997623 241.0
36.309921479 235.0
36.314845335 276.0
36.319769191 231.0
36.324693047 228.0
36.329616903 239.0
36.334540759 236.0
36.339464615 220.0
36.344388471 230.0
36.349312327 233.0
36.354236183 200.0
36.359160039 232.0
36.364083895 210.0
36.369007751 228.0
36.373931607 223.0
36.378855463 203.0
36.383779319 191.0
36.388703175 217.0
36.393627031 189.0
36.398550887 194.0
36.403474743 195.0
36.408398599 195.0
36.413322455 195.0
36.418246311 187.0
36.423170167 169.0
36.428094023 215.0
36.433017879 185.0
36.437941735 191.0
36.442865591 154.0
36.447789447 156.0
36.452713303 152.0
36.457637159 182.0
36.462561015 164.0
36.467484871 202.0
36.472408727 174.0
36.477332583 164.0
36.482256439 166.0
36.487180295 179.0
36.492104151 165.0
36.497028007 197.0
36.501951863 144.0
36.506875719 159.0
36.511799575 155.0
36.516723431 174.0
36.521647287 169.0
36.526571143 173.0
36.531494999 159.0
36.536418855 178.0
36.541342711 156.0
36.546266567 165.0
36.551190423 152.0
36.556114279 163.0
36.561038135 136.0
36.565961991 138.0
36.570885847 178.0
36.575809703 169.0
36.580733559 141.0
36.585657415 165.0
36.590581271 165.0
36.595505127 186.0
36.600428983 151.0
36.605352839 160.0
36.610276695 152.0
36.615200551 145.0
36.620124407 153.0
36.625048263 168.0
36.629972119 142.0
36.634895975 166.0
36.639819831 167.0
36.644743687 180.0
36.649667543 141.0
36.654591399 159.0
36.659515255 174.0
36.664439111 166.0
36.669362967 164.0
36.674286823 136.0
36.679210679 156.0
36.684134535 168.0
36.689058391 146.0
36.693982247 147.0
36.698906103 152.0
36.703829959 154.0
36.708753815 155.0
36.713677671 156.0
36.718601527 156.0
36.723525383 157.0
36.728449239 135.0
36.733373095 162.0
36.738296951 146.0
36.743220807 144.0
36.748144663 149.0
36.753068520 166.0
36.757992376 158.0
36.762916232 166.0
36.767840088 158.0
36.772763944 156.0
36.777687800 178.0
36.782611656 163.0
36.787535512 156.0
36.792459368 163.0
36.797383224 174.0
36.802307080 175.0
36.807230936 147.0
36.812154792 166.0
36.817078648 183.0
36.822002504 136.0
36.826926360 170.0
36.831850216 153.0
36.836774072 175.0
36.841697928 162.0
36.846621784 187.0
36.851545640 178.0
36.856469496 162.0
36.861393352 160.0
36.866317208 163.0
36.871241064 163.0
36.876164920 157.0
36.881088776 187.0
36.886012632 193.0
36.890936488 169.0
36.895860344 183.0
36.900784200 175.0
36.905708056 181.0
36.910631912 158.0
36.915555768 184.0
36.920479624 178.0
36.925403480 193.0
36.930327336 187.0
36.935251192 146.0
36.940175048 166.0
36.945098904 201.0
36.950022760 206.0
36.954946616 189.0
36.959870472 191.0
36.964794328 175.0
36.969718184 200.0
36.974642040 195.0
36.979565896 186.0
36.984489752 191.0
36.989413608 191.0
36.994337464 202.0
36.999261320 209.0
37.004185176 198.0
37.009109032 188.0
37.014032888 215.0
37.018956744 178.0
37.023880600 203.0
37.028804456 180.0
37.033728312 212.0
37.038652168 201.0
37.043576024 195.0
37.048499880 210.0
37.053423736 219.0
37.058347592 194.0
37.063271448 205.0
37.068195304 208.0
37.073119160 197.0
37.078043016 198.0
37.082966872 191.0
37.087890728 221.0
37.092814584 206.0
37.097738440 203.0
37.102662296 255.0
37.107586152 219.0
37.112510008 263.0
37.117433864 256.0
37.122357720 273.0
37.127281576 214.0
37.132205432 217.0
37.137129288 271.0
37.142053144 269.0
37.146977000 217.0
37.151900856 256.0
37.156824712 222.0
37.161748568 259.0
37.166672424 261.0
37.171596280 265.0
37.176520136 275.0
37.181443992 221.0
37.186367848 265.0
37.191291704 293.0
37.196215560 273.0
37.201139416 305.0
37.206063272 311.0
37.210987128 222.0
37.215910984 285.0
37.220834840 284.0
37.225758696 286.0
37.230682552 313.0
37.235606408 299.0
37.240530264 312.0
37.245454120 324.0
37.250377977 328.0
37.255301833 353.0
37.260225689 376.0
37.265149545 372.0
37.270073401 348.0
37.274997257 346.0
37.279921113 343.0
37.284844969 358.0
37.289768825 343.0
37.294692681 374.0
37.299616537 371.0
37.304540393 338.0
37.309464249 418.0
37.314388105 406.0
37.319311961 393.0
37.324235817 400.0
37.329159673 366.0
37.334083529 419.0
37.339007385 431.0
37.343931241 458.0
37.348855097 426.0
37.353778953 397.0
37.358702809 428.0
37.363626665 453.0
37.368550521 445.0
37.373474377 446.0
37.378398233 456.0
37.383322089 441.0
37.388245945 483.0
37.393169801 512.0
37.398093657 523.0
37.403017513 530.0
37.407941369 516.0
37.412865225 501.0
37.417789081 542.0
37.422712937 593.0
37.427636793 558.0
37.432560649 543.0
37.437484505 565.0
37.442408361 624.0
37.447332217 631.0
37.452256073 634.0
37.457179929 651.0
37.462103785 729.0
37.467027641 779.0
37.471951497 789.0
37.476875353 829.0
37.481799209 895.0
37.486723065 1006.0
37.491646921 1104.0
37.496570777 1107.0
37.501494633 1256.0
37.506418489 1347.0
37.511342345 1490.0
37.516266201 1741.0
37.521190057 1777.0
37.526113913 1934.0
37.531037769 2033.0
37.535961625 1993.0
37.540885481 2151.0
37.545809337 2266.0
37.550733193 2087.0
37.555657049 2143.0
37.560580905 2108.0
37.565504761 2044.0
37.570428617 2064.0
37.575352473 1976.0
37.580276329 2013.0
37.585200185 2252.0
37.590124041 2287.0
37.595047897 2273.0
37.599971753 2458.0
37.604895609 2591.0
37.609819465 2875.0
37.614743321 3087.0
37.619667177 3385.0
37.624591033 3940.0
37.629514889 4279.0
37.634438745 5042.0
37.639362601 5845.0
37.644286457 6834.0
37.649210313 7998.0
37.654134169 10055.0
37.659058025 12526.0
37.663981881 16666.0
37.668905737 22971.0
37.673829593 35254.0
37.678753449 58409.0
37.683677305 102141.0
37.688601161 150415.0
37.693525017 186017.0
37.698448873 200712.0
37.703372729 199829.0
37.708296585 186738.0
37.713220441 154327.0
37.718144297 109349.0
37.723068153 68024.0
37.727992009 43510.0
37.732915865 29372.0
37.737839721 21156.0
37.742763577 16081.0
37.747687433 13950.0
37.752611290 12818.0
37.757535146 12877.0
37.762459002 14344.0
37.767382858 18121.0
37.772306714 25005.0
37.777230570 38227.0
37.782154426 58426.0
37.787078282 79921.0
37.792002138 94788.0
37.796925994 101127.0
37.801849850 99856.0
37.806773706 90174.0
37.811697562 73727.0
37.816621418 52002.0
37.821545274 34713.0
37.826469130 22309.0
37.831392986 15266.0
37.836316842 10736.0
37.841240698 8214.0
37.846164554 6343.0
37.851088410 5248.0
37.856012266 4465.0
37.860936122 3866.0
37.865859978 3412.0
37.870783834 3101.0
37.875707690 2775.0
37.880631546 2584.0
37.885555402 2393.0
37.890479258 2138.0
37.895403114 2033.0
37.900326970 1902.0
37.905250826 1770.0
37.910174682 1630.0
37.915098538 1509.0
37.920022394 1476.0
37.924946250 1386.0
37.929870106 1316.0
37.934793962 1335.0
37.939717818 1175.0
37.944641674 1164.0
37.949565530 1123.0
37.954489386 1091.0
37.959413242 1012.0
37.964337098 975.0
37.969260954 941.0
37.974184810 946.0
37.979108666 918.0
37.984032522 898.0
37.988956378 842.0
37.993880234 880.0
37.998804090 755.0
38.003727946 769.0
38.008651802 759.0
38.013575658 789.0
38.018499514 718.0
38.023423370 705.0
38.028347226 683.0
38.033271082 696.0
38.038194938 675.0
38.043118794 611.0
38.048042650 606.0
38.052966506 582.0
38.057890362 595.0
38.062814218 564.0
38.067738074 549.0
38.072661930 587.0
38.077585786 583.0
38.082509642 542.0
38.087433498 488.0
38.092357354 506.0
38.097281210 505.0
38.102205066 470.0
38.107128922 474.0
38.112052778 409.0
38.116976634 450.0
38.121900490 444.0
38.126824346 442.0
38.131748202 416.0
38.136672058 407.0
38.141595914 411.0
38.146519770 434.0
38.151443626 414.0
38.156367482 376.0
38.161291338 386.0
38.166215194 367.0
38.171139050 344.0
38.176062906 377.0
38.180986762 381.0
38.185910618 335.0
38.190834474 324.0
38.195758330 313.0
38.200682186 294.0
38.205606042 318.0
38.210529898 328.0
38.215453754 304.0
38.220377610 287.0
38.225301466 312.0
38.230225322 310.0
38.235149178 313.0
38.240073034 302.0
38.244996890 284.0
38.249920747 290.0
38.254844603 309.0
38.259768459 275.0
38.264692315 214.0
38.269616171 264.0
38.274540027 224.0
38.279463883 215.0
38.284387739 214.0
38.289311595 205.0
38.294235451 265.0
38.299159307 219.0
38.304083163 203.0
38.309007019 185.0
38.313930875 217.0
38.318854731 191.0
38.323778587 196.0
38.328702443 186.0
38.333626299 194.0
38.338550155 176.0
38.343474011 165.0
38.348397867 168.0
38.353321723 165.0
38.358245579 171.0
38.363169435 160.0
38.368093291 160.0
38.373017147 152.0
38.377941003 196.0
38.382864859 151.0
38.387788715 162.0
38.392712571 145.0
38.397636427 150.0
38.402560283 156.0
38.407484139 147.0
38.412407995 149.0
38.417331851 180.0
38.422255707 144.0
38.427179563 153.0
38.432103419 136.0
38.437027275 140.0
38.441951131 153.0
38.446874987 122.0
38.451798843 147.0
38.456722699 131.0
38.461646555 159.0
38.466570411 149.0
38.471494267 158.0
38.476418123 119.0
38.481341979 124.0
38.486265835 125.0
38.491189691 135.0
38.496113547 123.0
38.501037403 125.0
38.505961259 112.0
38.510885115 124.0
38.515808971 127.0
38.520732827 127.0
38.525656683 125.0
38.530580539 129.0
38.535504395 111.0
38.540428251 114.0
38.545352107 112.0
38.550275963 107.0
38.555199819 113.0
38.560123675 103.0
38.565047531 110.0
38.569971387 112.0
38.574895243 119.0
38.579819099 107.0
38.584742955 109.0
38.589666811 104.0
38.594590667 103.0
38.599514523 107.0
38.604438379 97.0
38.609362235 107.0
38.614286091 117.0
38.619209947 110.0
38.624133803 109.0
38.629057659 106.0
38.633981515 90.0
38.638905371 99.0
38.643829227 96.0
38.648753083 83.0
38.653676939 97.0
38.658600795 112.0
38.663524651 94.0
38.668448507 98.0
38.673372363 101.0
38.678296219 84.0
38.683220075 85.0
38.688143931 93.0
38.693067787 102.0
38.697991643 91.0
38.702915499 101.0
38.707839355 97.0
38.712763211 108.0
38.717687067 94.0
38.722610923 94.0
38.727534779 80.0
38.732458635 95.0
38.737382491 83.0
38.742306347 85.0
38.747230203 89.0
38.752154060 96.0
38.757077916 71.0
38.762001772 95.0
38.766925628 81.0
38.771849484 86.0
38.776773340 89.0
38.781697196 82.0
38.786621052 95.0
38.791544908 95.0
38.796468764 70.0
38.801392620 96.0
38.806316476 99.0
38.811240332 82.0
38.816164188 101.0
38.821088044 84.0
38.826011900 92.0
38.830935756 76.0
38.835859612 91.0
38.840783468 71.0
38.845707324 99.0
38.850631180 90.0
38.855555036 70.0
38.860478892 87.0
38.865402748 90.0
38.870326604 67.0
38.875250460 71.0
38.880174316 86.0
38.885098172 90.0
38.890022028 71.0
38.894945884 80.0
38.899869740 61.0
38.904793596 90.0
38.909717452 75.0
38.914641308 88.0
38.919565164 68.0
38.924489020 74.0
38.929412876 103.0
38.934336732 94.0
38.939260588 78.0
38.944184444 71.0
38.949108300 90.0
38.954032156 83.0
38.958956012 74.0
38.963879868 92.0
38.968803724 97.0
38.973727580 82.0
38.978651436 74.0
38.983575292 75.0
38.988499148 87.0
38.993423004 83.0
38.998346860 69.0
39.003270716 69.0
39.008194572 74.0
39.013118428 88.0
39.018042284 62.0
39.022966140 78.0
39.027889996 76.0
39.032813852 74.0
39.037737708 81.0
39.042661564 74.0
39.047585420 67.0
39.052509276 80.0
39.057433132 81.0
39.062356988 65.0
39.067280844 65.0
39.072204700 77.0
39.077128556 67.0
39.082052412 75.0
39.086976268 63.0
39.091900124 77.0
39.096823980 86.0
39.101747836 74.0
39.106671692 81.0
39.111595548 72.0
39.116519404 60.0
39.121443260 72.0
39.126367116 69.0
39.131290972 63.0
39.136214828 70.0
39.141138684 66.0
39.146062540 71.0
39.150986396 59.0
39.155910252 64.0
39.160834108 69.0
39.165757964 58.0
39.170681820 93.0
39.175605676 75.0
39.180529532 71.0
39.185453388 82.0
39.190377244 88.0
39.195301100 64.0
39.200224956 72.0
39.205148812 59.0
39.210072668 66.0
39.214996524 66.0
39.219920380 61.0
39.224844236 73.0
39.229768092 69.0
39.234691948 51.0
39.239615804 71.0
39.244539660 75.0
39.249463517 83.0
39.254387373 62.0
39.259311229 79.0
39.264235085 69.0
39.269158941 76.0
39.274082797 71.0
39.279006653 78.0
39.283930509 67.0
39.288854365 52.0
39.293778221 77.0
39.298702077 69.0
39.303625933 56.0
39.308549789 65.0
39.313473645 70.0
39.318397501 62.0
39.323321357 72.0
39.328245213 59.0
39.333169069 70.0
39.338092925 69.0
39.343016781 66.0
39.347940637 53.0
39.352864493 60.0
39.357788349 75.0
39.362712205 81.0
39.367636061 68.0
39.372559917 75.0
39.377483773 62.0
39.382407629 77.0
39.387331485 61.0
39.392255341 63.0
39.397179197 70.0
39.402103053 81.0
39.407026909 55.0
39.411950765 64.0
39.416874621 68.0
39.421798477 68.0
39.426722333 56.0
39.431646189 75.0
39.436570045 58.0
39.441493901 76.0
39.446417757 71.0
39.451341613 72.0
39.456265469 62.0
39.461189325 75.0
39.466113181 60.0
39.471037037 68.0
39.475960893 80.0
39.480884749 53.0
39.485808605 50.0
39.490732461 66.0
39.495656317 50.0
39.500580173 68.0
39.505504029 67.0
39.510427885 70.0
39.515351741 57.0
39.520275597 69.0
39.525199453 55.0
39.530123309 55.0
39.535047165 68.0
39.539971021 62.0
39.544894877 65.0
39.549818733 63.0
39.554742589 58.0
39.559666445 66.0
39.564590301 68.0
39.569514157 75.0
39.574438013 50.0
39.579361869 61.0
39.584285725 64.0
39.589209581 58.0
39.594133437 73.0
39.599057293 64.0
39.603981149 62.0
39.608905005 59.0
39.613828861 66.0
39.618752717 69.0
39.623676573 78.0
39.628600429 70.0
39.633524285 77.0
39.638448141 61.0
39.643371997 72.0
39.648295853 62.0
39.653219709 65.0
39.658143565 65.0
39.663067421 60.0
39.667991277 64.0
39.672915133 76.0
39.677838989 61.0
39.682762845 73.0
39.687686701 66.0
39.692610557 75.0
39.697534413 57.0
39.702458269 58.0
39.707382125 51.0
39.712305981 69.0
39.717229837 55.0
39.722153693 65.0
39.727077549 61.0
39.732001405 55.0
39.736925261 60.0
39.741849117 80.0
39.746772973 60.0
39.751696830 69.0
39.756620686 57.0
39.761544542 74.0
39.766468398 68.0
39.771392254 58.0
39.776316110 70.0
39.781239966 59.0
39.786163822 62.0
39.791087678 72.0
39.796011534 58.0
39.800935390 75.0
39.805859246 70.0
39.810783102 69.0
39.815706958 68.0
39.820630814 74.0
39.825554670 53.0
39.830478526 59.0
39.835402382 58.0
39.840326238 57.0
39.845250094 69.0
39.850173950 62.0
39.855097806 77.0
39.860021662 59.0
39.864945518 68.0
39.869869374 60.0
39.874793230 55.0
39.879717086 50.0
39.884640942 70.0
39.889564798 58.0
39.894488654 55.0
39.899412510 73.0
39.904336366 68.0
39.909260222 55.0
39.914184078 57.0
39.919107934 75.0
39.924031790 67.0
39.928955646 46.0
39.933879502 72.0
39.938803358 68.0
39.943727214 59.0
39.948651070 68.0
39.953574926 65.0
39.958498782 60.0
39.963422638 62.0
39.968346494 51.0
39.973270350 65.0
39.978194206 60.0
39.983118062 51.0
39.988041918 66.0
39.992965774 58.0
39.997889630 66.0
