35.002061930 128.0
35.006985786 118.0
35.011909642 129.0
35.016833498 134.0
35.021757354 106.0
35.026681210 98.0
35.031605066 129.0
35.036528922 113.0
35.041452778 139.0
35.046376634 108.0
35.051300490 105.0
35.056224346 94.0
35.061148202 117.0
35.066072058 107.0
35.070995914 114.0
35.075919770 116.0
35.080843626 116.0
35.085767482 121.0
35.090691338 108.0
35.095615194 114.0
35.100539050 112.0
35.105462906 115.0
35.110386762 131.0
35.115310618 106.0
35.120234474 141.0
35.125158330 142.0
35.130082186 115.0
35.135006042 113.0
35.139929898 112.0
35.144853754 112.0
35.149777610 134.0
35.154701466 133.0
35.159625322 137.0
35.164549178 134.0
35.169473034 131.0
35.174396890 120.0
35.179320746 133.0
35.184244602 127.0
35.189168458 129.0
35.194092314 165.0
35.199016170 98.0
35.203940026 125.0
35.208863882 125.0
35.213787738 126.0
35.218711594 117.0
35.223635450 112.0
35.228559306 119.0
35.233483162 151.0
35.238407018 113.0
35.243330874 136.0
35.248254730 129.0
35.253178587 131.0
35.258102443 137.0
35.263026299 134.0
35.267950155 116.0
35.272874011 114.0
35.277797867 122.0
35.282721723 140.0
35.287645579 109.0
35.292569435 111.0
35.297493291 109.0
35.302417147 118.0
35.307341003 103.0
35.312264859 137.0
35.317188715 125.0
35.322112571 122.0
35.327036427 126.0
35.331960283 130.0
35.336884139 142.0
35.341807995 129.0
35.346731851 148.0
35.351655707 125.0
35.356579563 137.0
35.361503419 127.0
35.366427275 122.0
35.371351131 134.0
35.376274987 119.0
35.381198843 129.0
35.386122699 103.0
35.391046555 127.0
35.395970411 149.0
35.400894267 143.0
35.405818123 132.0
35.410741979 113.0
35.415665835 141.0
35.420589691 132.0
35.425513547 142.0
35.430437403 113.0
35.435361259 111.0
35.440285115 132.0
35.445208971 136.0
35.450132827 130.0
35.455056683 121.0
35.459980539 132.0
35.464904395 127.0
35.469828251 119.0
35.474752107 140.0
35.479675963 134.0
35.484599819 136.0
35.489523675 130.0
35.494447531 132.0
35.499371387 146.0
35.504295243 143.0
35.509219099 150.0
35.514142955 133.0
35.519066811 157.0
35.523990667 147.0
35.528914523 131.0
35.533838379 151.0
35.538762235 139.0
35.543686091 126.0
35.548609947 133.0
35.553533803 154.0
35.558457659 156.0
35.563381515 156.0
35.568305371 133.0
35.573229227 138.0
35.578153083 158.0
35.583076939 134.0
35.588000795 141.0
35.592924651 155.0
35.597848507 150.0
35.602772363 149.0
35.607696219 153.0
35.612620075 145.0
35.617543931 133.0
35.622467787 163.0
35.627391643 143.0
35.632315499 144.0
35.637239355 158.0
35.642163211 139.0
35.647087067 138.0
35.652010923 128.0
35.656934779 138.0
35.661858635 129.0
35.666782491 174.0
35.671706347 133.0
35.676630203 147.0
35.681554059 134.0
35.686477915 125.0
35.691401771 116.0
35.696325627 129.0
35.701249483 133.0
35.706173339 133.0
35.711097195 123.0
35.716021051 145.0
35.720944907 138.0
35.725868763 111.0
35.730792619 141.0
35.735716475 131.0
35.740640331 121.0
35.745564187 116.0
35.750488043 120.0
35.755411900 140.0
35.760335756 113.0
35.765259612 121.0
35.770183468 106.0
35.775107324 109.0
35.780031180 143.0
35.784955036 130.0
35.789878892 111.0
35.794802748 145.0
35.799726604 118.0
35.804650460 128.0
35.809574316 121.0
35.814498172 146.0
35.819422028 104.0
35.824345884 120.0
35.829269740 123.0
35.834193596 122.0
35.839117452 134.0
35.844041308 121.0
35.848965164 149.0
35.853889020 120.0
35.858812876 120.0
35.863736732 130.0
35.868660588 139.0
35.873584444 132.0
35.878508300 119.0
35.883432156 125.0
35.888356012 122.0
35.893279868 125.0
35.898203724 114.0
35.903127580 132.0
35.908051436 109.0
35.912975292 126.0
35.917899148 115.0
35.922823004 126.0
35.927746860 127.0
35.932670716 114.0
35.937594572 123.0
35.942518428 126.0
35.947442284 142.0
35.952366140 135.0
35.957289996 132.0
35.962213852 123.0
35.967137708 110.0
35.972061564 126.0
35.976985420 116.0
35.981909276 130.0
35.986833132 132.0
35.991756988 119.0
35.996680844 131.0
36.001604700 109.0
36.006528556 132.0
36.011452412 137.0
36.016376268 118.0
36.021300124 118.0
36.026223980 110.0
36.031147836 116.0
36.036071692 118.0
36.040995548 120.0
36.045919404 124.0
36.050843260 117.0
36.055767116 125.0
36.060690972 121.0
36.065614828 129.0
36.070538684 123.0
36.075462540 123.0
36.080386396 120.0
36.085310252 135.0
36.090234108 117.0
36.095157964 120.0
36.100081820 117.0
36.105005676 109.0
36.109929532 128.0
36.114853388 129.0
36.119777244 124.0
36.124701100 137.0
36.129624956 135.0
36.134548812 146.0
36.139472668 135.0
36.144396524 136.0
36.149320380 127.0
36.154244236 149.0
36.159168092 118.0
36.164091948 102.0
36.169015804 129.0
36.173939660 121.0
36.178863516 130.0
36.183787372 136.0
36.188711228 113.0
36.193635084 110.0
36.198558940 122.0
36.203482796 104.0
36.208406652 147.0
36.213330508 116.0
36.218254364 112.0
36.223178220 144.0
36.228102076 121.0
36.233025932 120.0
36.237949788 127.0
36.242873644 116.0
36.247797500 114.0
36.252721357 111.0
36.257645213 105.0
36.262569069 123.0
36.267492925 128.0
36.272416781 130.0
36.277340637 119.0
36.282264493 121.0
36.287188349 120.0
36.292112205 118.0
36.297036061 117.0
36.301959917 133.0
36.306883773 132.0
36.311807629 113.0
36.316731485 121.0
36.321655341 122.0
36.326579197 105.0
36.331503053 118.0
36.336426909 131.0
36.341350765 127.0
36.346274621 114.0
36.351198477 124.0
36.356122333 120.0
36.361046189 120.0
36.365970045 114.0
36.370893901 116.0
36.375817757 107.0
36.380741613 120.0
36.385665469 113.0
36.390589325 134.0
36.395513181 127.0
36.400437037 128.0
36.405360893 116.0
36.410284749 117.0
36.415208605 118.0
36.420132461 104.0
36.425056317 139.0
36.429980173 139.0
36.434904029 113.0
36.439827885 144.0
36.444751741 114.0
36.449675597 124.0
36.454599453 130.0
36.459523309 139.0
36.464447165 129.0
36.469371021 131.0
36.474294877 126.0
36.479218733 117.0
36.484142589 111.0
36.489066445 135.0
36.493990301 124.0
36.498914157 106.0
36.503838013 131.0
36.508761869 115.0
36.513685725 101.0
36.518609581 103.0
36.523533437 134.0
36.528457293 127.0
36.533381149 118.0
36.538305005 117.0
36.543228861 111.0
36.548152717 97.0
36.553076573 121.0
36.558000429 131.0
36.562924285 113.0
36.567848141 113.0
36.572771997 120.0
36.577695853 102.0
36.582619709 120.0
36.587543565 127.0
36.592467421 111.0
36.597391277 114.0
36.602315133 102.0
36.607238989 136.0
36.612162845 136.0
36.617086701 106.0
36.622010557 115.0
36.626934413 124.0
36.631858269 123.0
36.636782125 114.0
36.641705981 114.0
36.646629837 119.0
36.651553693 127.0
36.656477549 114.0
36.661401405 135.0
36.666325261 127.0
36.671249117 115.0
36.676172973 113.0
36.681096829 119.0
36.686020685 113.0
36.690944541 133.0
36.695868397 135.0
36.700792253 114.0
36.705716109 118.0
36.710639965 112.0
36.715563821 140.0
36.720487677 123.0
36.725411533 110.0
36.730335389 118.0
36.735259245 112.0
36.740183101 98.0
36.745106957 127.0
36.750030813 104.0
36.754954670 127.0
36.759878526 105.0
36.764802382 123.0
36.769726238 108.0
36.774650094 117.0
36.779573950 110.0
36.784497806 125.0
36.789421662 141.0
36.794345518 104.0
36.799269374 116.0
36.804193230 125.0
36.809117086 115.0
36.814040942 116.0
36.818964798 111.0
36.823888654 124.0
36.828812510 121.0
36.833736366 107.0
36.838660222 131.0
36.843584078 114.0
36.848507934 125.0
36.853431790 121.0
36.858355646 130.0
36.863279502 133.0
36.868203358 110.0
36.873127214 118.0
36.878051070 131.0
36.882974926 128.0
36.887898782 132.0
36.892822638 129.0
36.897746494 130.0
36.902670350 143.0
36.907594206 114.0
36.912518062 122.0
36.917441918 137.0
36.922365774 150.0
36.927289630 137.0
36.932213486 131.0
36.937137342 114.0
36.942061198 134.0
36.946985054 134.0
36.951908910 129.0
36.956832766 115.0
36.961756622 127.0
36.966680478 136.0
36.971604334 127.0
36.976528190 135.0
36.981452046 119.0
36.986375902 130.0
36.991299758 129.0
36.996223614 156.0
37.001147470 139.0
37.006071326 125.0
37.010995182 127.0
37.015919038 136.0
37.020842894 125.0
37.025766750 129.0
37.030690606 134.0
37.035614462 120.0
37.040538318 125.0
37.045462174 131.0
37.050386030 129.0
37.055309886 122.0
37.060233742 126.0
37.065157598 131.0
37.070081454 124.0
37.075005310 96.0
37.079929166 139.0
37.084853022 128.0
37.089776878 138.0
37.094700734 133.0
37.099624590 135.0
37.104548446 109.0
37.109472302 108.0
37.114396158 117.0
37.119320014 143.0
37.124243870 120.0
37.129167726 134.0
37.134091582 121.0
37.139015438 131.0
37.143939294 118.0
37.148863150 119.0
37.153787006 132.0
37.158710862 124.0
37.163634718 123.0
37.168558574 133.0
37.173482430 117.0
37.178406286 145.0
37.183330142 113.0
37.188253998 124.0
37.193177854 127.0
37.198101710 113.0
37.203025566 129.0
37.207949422 134.0
37.212873278 131.0
37.217797134 121.0
37.222720990 148.0
37.227644846 111.0
37.232568702 138.0
37.237492558 122.0
37.242416414 111.0
37.247340270 120.0
37.252264127 123.0
37.257187983 129.0
37.262111839 119.0
37.267035695 122.0
37.271959551 138.0
37.276883407 130.0
37.281807263 119.0
37.286731119 153.0
37.291654975 137.0
37.296578831 112.0
37.301502687 123.0
37.306426543 138.0
37.311350399 129.0
37.316274255 112.0
37.321198111 143.0
37.326121967 132.0
37.331045823 134.0
37.335969679 140.0
37.340893535 136.0
37.345817391 145.0
37.350741247 130.0
37.355665103 143.0
37.360588959 112.0
37.365512815 121.0
37.370436671 151.0
37.375360527 119.0
37.380284383 154.0
37.385208239 163.0
37.390132095 166.0
37.395055951 161.0
37.399979807 181.0
37.404903663 194.0
37.409827519 276.0
37.414751375 289.0
37.419675231 271.0
37.424599087 342.0
37.429522943 364.0
37.434446799 348.0
37.439370655 377.0
37.444294511 382.0
37.449218367 356.0
37.454142223 339.0
37.459066079 346.0
37.463989935 321.0
37.468913791 307.0
37.473837647 299.0
37.478761503 264.0
37.483685359 214.0
37.488609215 187.0
37.493533071 166.0
37.498456927 173.0
37.503380783 174.0
37.508304639 150.0
37.513228495 165.0
37.518152351 158.0
37.523076207 180.0
37.528000063 132.0
37.532923919 143.0
37.537847775 126.0
37.542771631 125.0
37.547695487 136.0
37.552619343 130.0
37.557543199 139.0
37.562467055 135.0
37.567390911 132.0
37.572314767 126.0
37.577238623 126.0
37.582162479 124.0
37.587086335 150.0
37.592010191 143.0
37.596934047 154.0
37.601857903 141.0
37.606781759 139.0
37.611705615 134.0
37.616629471 112.0
37.621553327 137.0
37.626477183 111.0
37.631401039 149.0
37.636324895 124.0
37.641248751 130.0
37.646172607 128.0
37.651096463 130.0
37.656020319 114.0
37.660944175 120.0
37.665868031 123.0
37.670791887 122.0
37.675715743 141.0
37.680639599 126.0
37.685563455 125.0
37.690487311 135.0
37.695411167 116.0
37.700335023 135.0
37.705258879 129.0
37.710182735 117.0
37.715106591 110.0
37.720030447 139.0
37.724954303 139.0
37.729878159 128.0
37.734802015 130.0
37.739725871 135.0
37.744649727 115.0
37.749573583 137.0
37.754497440 108.0
37.759421296 112.0
37.764345152 122.0
37.769269008 130.0
37.774192864 138.0
37.779116720 130.0
37.784040576 127.0
37.788964432 123.0
37.793888288 111.0
37.798812144 127.0
37.803736000 141.0
37.808659856 120.0
37.813583712 152.0
37.818507568 126.0
37.823431424 129.0
37.828355280 132.0
37.833279136 113.0
37.838202992 139.0
37.843126848 128.0
37.848050704 134.0
37.852974560 148.0
37.857898416 147.0
37.862822272 122.0
37.867746128 133.0
37.872669984 124.0
37.877593840 110.0
37.882517696 121.0
37.887441552 118.0
37.892365408 123.0
37.897289264 120.0
37.902213120 131.0
37.907136976 141.0
37.912060832 104.0
37.916984688 129.0
37.921908544 168.0
37.926832400 128.0
37.931756256 128.0
37.936680112 121.0
37.941603968 133.0
37.946527824 124.0
37.951451680 124.0
37.956375536 130.0
37.961299392 118.0
37.966223248 118.0
37.971147104 110.0
37.976070960 155.0
37.980994816 148.0
37.985918672 136.0
37.990842528 140.0
37.995766384 127.0
38.000690240 137.0
38.005614096 139.0
38.010537952 124.0
38.015461808 129.0
38.020385664 116.0
38.025309520 142.0
38.030233376 130.0
38.035157232 128.0
38.040081088 127.0
38.045004944 122.0
38.049928800 128.0
38.054852656 135.0
38.059776512 146.0
38.064700368 129.0
38.069624224 145.0
38.074548080 134.0
38.079471936 135.0
38.084395792 125.0
38.089319648 137.0
38.094243504 127.0
38.099167360 114.0
38.104091216 125.0
38.109015072 148.0
38.113938928 140.0
38.118862784 118.0
38.123786640 141.0
38.128710496 130.0
38.133634352 144.0
38.138558208 132.0
38.143482064 128.0
38.148405920 131.0
38.153329776 141.0
38.158253632 149.0
38.163177488 147.0
38.168101344 127.0
38.173025200 127.0
38.177949056 125.0
38.182872912 120.0
38.187796768 166.0
38.192720624 143.0
38.197644480 138.0
38.202568336 160.0
38.207492192 132.0
38.212416048 126.0
38.217339904 125.0
38.222263760 135.0
38.227187616 137.0
38.232111472 146.0
38.237035328 135.0
38.241959184 137.0
38.246883040 154.0
38.251806897 143.0
38.256730753 130.0
38.261654609 116.0
38.266578465 142.0
38.271502321 147.0
38.276426177 167.0
38.281350033 120.0
38.286273889 136.0
38.291197745 128.0
38.296121601 150.0
38.301045457 137.0
38.305969313 137.0
38.310893169 153.0
38.315817025 151.0
38.320740881 129.0
38.325664737 134.0
38.330588593 136.0
38.335512449 137.0
38.340436305 128.0
38.345360161 184.0
38.350284017 137.0
38.355207873 155.0
38.360131729 147.0
38.365055585 158.0
38.369979441 162.0
38.374903297 177.0
38.379827153 156.0
38.384751009 132.0
38.389674865 142.0
38.394598721 145.0
38.399522577 138.0
38.404446433 145.0
38.409370289 143.0
38.414294145 135.0
38.419218001 142.0
38.424141857 138.0
38.429065713 142.0
38.433989569 147.0
38.438913425 153.0
38.443837281 144.0
38.448761137 151.0
38.453684993 147.0
38.458608849 153.0
38.463532705 152.0
38.468456561 139.0
38.473380417 123.0
38.478304273 153.0
38.483228129 158.0
38.488151985 147.0
38.493075841 163.0
38.497999697 160.0
38.502923553 136.0
38.507847409 152.0
38.512771265 146.0
38.517695121 167.0
38.522618977 171.0
38.527542833 154.0
38.532466689 149.0
38.537390545 163.0
38.542314401 157.0
38.547238257 149.0
38.552162113 169.0
38.557085969 132.0
38.562009825 154.0
38.566933681 135.0
38.571857537 168.0
38.576781393 156.0
38.581705249 167.0
38.586629105 149.0
38.591552961 146.0
38.596476817 164.0
38.601400673 160.0
38.606324529 178.0
38.611248385 159.0
38.616172241 175.0
38.621096097 155.0
38.626019953 172.0
38.630943809 190.0
38.635867665 158.0
38.640791521 154.0
38.645715377 189.0
38.650639233 176.0
38.655563089 177.0
38.660486945 160.0
38.665410801 167.0
38.670334657 170.0
38.675258513 177.0
38.680182369 179.0
38.685106225 190.0
38.690030081 178.0
38.694953937 173.0
38.699877793 172.0
38.704801649 168.0
38.709725505 155.0
38.714649361 174.0
38.719573217 191.0
38.724497073 193.0
38.729420929 180.0
38.734344785 195.0
38.739268641 168.0
38.744192497 191.0
38.749116353 176.0
38.754040210 183.0
38.758964066 193.0
38.763887922 160.0
38.768811778 199.0
38.773735634 196.0
38.778659490 214.0
38.783583346 171.0
38.788507202 196.0
38.793431058 180.0
38.798354914 165.0
38.803278770 189.0
38.808202626 194.0
38.813126482 195.0
38.818050338 209.0
38.822974194 204.0
38.827898050 164.0
38.832821906 201.0
38.837745762 192.0
38.842669618 195.0
38.847593474 223.0
38.852517330 209.0
38.857441186 238.0
38.862365042 199.0
38.867288898 205.0
38.872212754 226.0
38.877136610 219.0
38.882060466 197.0
38.886984322 222.0
38.891908178 208.0
38.896832034 234.0
38.901755890 246.0
38.906679746 244.0
38.911603602 243.0
38.916527458 231.0
38.921451314 241.0
38.926375170 218.0
38.931299026 264.0
38.936222882 260.0
38.941146738 259.0
38.946070594 276.0
38.950994450 249.0
38.955918306 249.0
38.960842162 271.0
38.965766018 269.0
38.970689874 303.0
38.975613730 294.0
38.980537586 304.0
38.985461442 318.0
38.990385298 280.0
38.995309154 321.0
39.000233010 366.0
39.005156866 338.0
39.010080722 319.0
39.015004578 310.0
39.019928434 300.0
39.024852290 363.0
39.029776146 341.0
39.034700002 354.0
39.039623858 373.0
39.044547714 406.0
39.049471570 380.0
39.054395426 394.0
39.059319282 398.0
39.064243138 430.0
39.069166994 411.0
39.074090850 449.0
39.079014706 430.0
39.083938562 455.0
39.088862418 444.0
39.093786274 484.0
39.098710130 527.0
39.103633986 520.0
39.108557842 568.0
39.113481698 536.0
39.118405554 534.0
39.123329410 598.0
39.128253266 613.0
39.133177122 643.0
39.138100978 614.0
39.143024834 649.0
39.147948690 655.0
39.152872546 713.0
39.157796402 757.0
39.162720258 725.0
39.167644114 714.0
39.172567970 763.0
39.177491826 839.0
39.182415682 865.0
39.187339538 867.0
39.192263394 834.0
39.197187250 920.0
39.202111106 899.0
39.207034962 1006.0
39.211958818 995.0
39.216882674 1038.0
39.221806530 1068.0
39.226730386 1078.0
39.231654242 1101.0
39.236578098 1168.0
39.241501954 1207.0
39.246425810 1217.0
39.251349667 1285.0
39.256273523 1334.0
39.261197379 1415.0
39.266121235 1417.0
39.271045091 1514.0
39.275968947 1550.0
39.280892803 1627.0
39.285816659 1623.0
39.290740515 1737.0
39.295664371 1704.0
39.300588227 1818.0
39.305512083 1930.0
39.310435939 1950.0
39.315359795 2123.0
39.320283651 2146.0
39.325207507 2168.0
39.330131363 2237.0
39.335055219 2343.0
39.339979075 2481.0
39.344902931 2516.0
39.349826787 2545.0
39.354750643 2669.0
39.359674499 2813.0
39.364598355 2943.0
39.369522211 2999.0
39.374446067 2984.0
39.379369923 3212.0
39.384293779 3332.0
39.389217635 3492.0
39.394141491 3552.0
39.399065347 3703.0
39.403989203 3978.0
39.408913059 3879.0
39.413836915 4177.0
39.418760771 4248.0
39.423684627 4445.0
39.428608483 4651.0
39.433532339 4874.0
39.438456195 4940.0
39.443380051 5191.0
39.448303907 5447.0
39.453227763 5504.0
39.458151619 5802.0
39.463075475 5915.0
39.467999331 6318.0
39.472923187 6404.0
39.477847043 6655.0
39.482770899 6845.0
39.487694755 6976.0
39.492618611 7375.0
39.497542467 7354.0
39.502466323 7673.0
39.507390179 7968.0
39.512314035 7916.0
39.517237891 8234.0
39.522161747 8303.0
39.527085603 8462.0
39.532009459 8596.0
39.536933315 8465.0
39.541857171 8657.0
39.546781027 8754.0
39.551704883 8834.0
39.556628739 8750.0
39.561552595 8493.0
39.566476451 8670.0
39.571400307 8498.0
39.576324163 8486.0
39.581248019 8342.0
39.586171875 8314.0
39.591095731 8143.0
39.596019587 8072.0
39.600943443 7929.0
39.605867299 7781.0
39.610791155 7566.0
39.615715011 7379.0
39.620638867 7266.0
39.625562723 6877.0
39.630486579 6920.0
39.635410435 6626.0
39.640334291 6556.0
39.645258147 6170.0
39.650182003 6090.0
39.655105859 5912.0
39.660029715 5593.0
39.664953571 5614.0
39.669877427 5280.0
39.674801283 5174.0
39.679725139 4921.0
39.684648995 4698.0
39.689572851 4467.0
39.694496707 4271.0
39.699420563 4089.0
39.704344419 3882.0
39.709268275 3654.0
39.714192131 3542.0
39.719115987 3429.0
39.724039843 3234.0
39.728963699 3126.0
39.733887555 2825.0
39.738811411 2690.0
39.743735267 2518.0
39.748659123 2445.0
39.753582980 2373.0
39.758506836 2143.0
39.763430692 2115.0
39.768354548 1894.0
39.773278404 1845.0
39.778202260 1777.0
39.783126116 1677.0
39.788049972 1592.0
39.792973828 1521.0
39.797897684 1405.0
39.802821540 1374.0
39.807745396 1384.0
39.812669252 1267.0
39.817593108 1153.0
39.822516964 1179.0
39.827440820 1108.0
39.832364676 1058.0
39.837288532 1052.0
39.842212388 971.0
39.847136244 898.0
39.852060100 909.0
39.856983956 820.0
39.861907812 809.0
39.866831668 820.0
39.871755524 741.0
39.876679380 747.0
39.881603236 694.0
39.886527092 638.0
39.891450948 666.0
39.896374804 641.0
39.901298660 570.0
39.906222516 618.0
39.911146372 552.0
39.916070228 517.0
39.920994084 532.0
39.925917940 539.0
39.930841796 533.0
39.935765652 502.0
39.940689508 462.0
39.945613364 477.0
39.950537220 443.0
39.955461076 462.0
39.960384932 442.0
39.965308788 384.0
39.970232644 418.0
39.975156500 404.0
39.980080356 441.0
39.985004212 409.0
39.989928068 368.0
39.994851924 378.0
39.999775780 339.0
40.004699636 317.0
40.009623492 336.0
40.014547348 348.0
40.019471204 338.0
40.024395060 342.0
40.029318916 326.0
40.034242772 332.0
40.039166628 300.0
40.044090484 317.0
40.049014340 303.0
40.053938196 289.0
40.058862052 292.0
40.063785908 271.0
40.068709764 263.0
40.073633620 279.0
40.078557476 272.0
40.083481332 277.0
40.088405188 291.0
40.093329044 281.0
40.098252900 264.0
40.103176756 271.0
40.108100612 238.0
40.113024468 224.0
40.117948324 220.0
40.122872180 240.0
40.127796036 235.0
40.132719892 227.0
40.137643748 221.0
40.142567604 209.0
40.147491460 224.0
40.152415316 232.0
40.157339172 236.0
40.162263028 236.0
40.167186884 207.0
40.172110740 226.0
40.177034596 225.0
40.181958452 210.0
40.186882308 212.0
40.191806164 192.0
40.196730020 184.0
40.201653876 185.0
40.206577732 182.0
40.211501588 194.0
40.216425444 189.0
40.221349300 205.0
40.226273156 192.0
40.231197012 179.0
40.236120868 214.0
40.241044724 174.0
40.245968580 195.0
40.250892437 197.0
40.255816293 163.0
40.260740149 199.0
40.265664005 191.0
40.270587861 187.0
40.275511717 186.0
40.280435573 192.0
40.285359429 161.0
40.290283285 183.0
40.295207141 183.0
40.300130997 189.0
40.305054853 182.0
40.309978709 174.0
40.314902565 179.0
40.319826421 176.0
40.324750277 166.0
40.329674133 174.0
40.334597989 190.0
40.339521845 156.0
40.344445701 182.0
40.349369557 169.0
40.354293413 173.0
40.359217269 177.0
40.364141125 164.0
40.369064981 171.0
40.373988837 175.0
40.378912693 140.0
40.383836549 177.0
40.388760405 175.0
40.393684261 185.0
40.398608117 174.0
40.403531973 180.0
40.408455829 194.0
40.413379685 177.0
40.418303541 173.0
40.423227397 156.0
40.428151253 144.0
40.433075109 158.0
40.437998965 173.0
40.442922821 155.0
40.447846677 171.0
40.452770533 169.0
40.457694389 172.0
40.462618245 191.0
40.467542101 152.0
40.472465957 179.0
40.477389813 162.0
40.482313669 169.0
40.487237525 176.0
40.492161381 170.0
40.497085237 158.0
40.502009093 175.0
40.506932949 159.0
40.511856805 153.0
40.516780661 156.0
40.521704517 166.0
40.526628373 173.0
40.531552229 190.0
40.536476085 162.0
40.541399941 149.0
40.546323797 171.0
40.551247653 177.0
40.556171509 168.0
40.561095365 152.0
40.566019221 160.0
40.570943077 173.0
40.575866933 160.0
40.580790789 168.0
40.585714645 194.0
40.590638501 204.0
40.595562357 187.0
40.600486213 194.0
40.605410069 168.0
40.610333925 140.0
40.615257781 196.0
40.620181637 180.0
40.625105493 180.0
40.630029349 157.0
40.634953205 149.0
40.639877061 182.0
40.644800917 157.0
40.649724773 176.0
40.654648629 185.0
40.659572485 162.0
40.664496341 182.0
40.669420197 201.0
40.674344053 180.0
40.679267909 154.0
40.684191765 183.0
40.689115621 179.0
40.694039477 163.0
40.698963333 182.0
40.703887189 170.0
40.708811045 182.0
40.713734901 198.0
40.718658757 187.0
40.723582613 185.0
40.728506469 182.0
40.733430325 182.0
40.738354181 162.0
40.743278037 158.0
40.748201893 190.0
40.753125750 188.0
40.758049606 166.0
40.762973462 181.0
40.767897318 182.0
40.772821174 172.0
40.777745030 199.0
40.782668886 198.0
40.787592742 187.0
40.792516598 192.0
40.797440454 169.0
40.802364310 144.0
40.807288166 173.0
40.812212022 201.0
40.817135878 182.0
40.822059734 197.0
40.826983590 182.0
40.831907446 180.0
40.836831302 192.0
40.841755158 166.0
40.846679014 201.0
40.851602870 176.0
40.856526726 194.0
40.861450582 200.0
40.866374438 195.0
40.871298294 200.0
40.876222150 194.0
40.881146006 213.0
40.886069862 217.0
40.890993718 191.0
40.895917574 210.0
40.900841430 199.0
40.905765286 185.0
40.910689142 187.0
40.915612998 213.0
40.920536854 206.0
40.925460710 207.0
40.930384566 207.0
40.935308422 187.0
40.940232278 185.0
40.945156134 193.0
40.950079990 199.0
40.955003846 201.0
40.959927702 208.0
40.964851558 192.0
40.969775414 211.0
40.974699270 205.0
40.979623126 205.0
40.984546982 206.0
40.989470838 195.0
40.994394694 218.0
40.999318550 197.0
41.004242406 198.0
41.009166262 222.0
41.014090118 212.0
41.019013974 175.0
41.023937830 218.0
41.028861686 211.0
41.033785542 185.0
41.038709398 226.0
41.043633254 220.0
41.048557110 206.0
41.053480966 215.0
41.058404822 220.0
41.063328678 212.0
41.068252534 206.0
41.073176390 218.0
41.078100246 224.0
41.083024102 205.0
41.087947958 220.0
41.092871814 209.0
41.097795670 189.0
41.102719526 273.0
41.107643382 222.0
41.112567238 224.0
41.117491094 213.0
41.122414950 285.0
41.127338806 212.0
41.132262662 257.0
41.137186518 255.0
41.142110374 224.0
41.147034230 218.0
41.151958086 217.0
41.156881942 278.0
41.161805798 204.0
41.166729654 219.0
41.171653510 273.0
41.176577366 257.0
41.181501222 262.0
41.186425078 204.0
41.191348934 273.0
41.196272790 270.0
41.201196646 261.0
41.206120502 272.0
41.211044358 220.0
41.215968214 305.0
41.220892070 291.0
41.225815926 289.0
41.230739782 287.0
41.235663638 271.0
41.240587494 294.0
41.245511350 228.0
41.250435207 305.0
41.255359063 288.0
41.260282919 288.0
41.265206775 327.0
41.270130631 288.0
41.275054487 284.0
41.279978343 300.0
41.284902199 303.0
41.289826055 322.0
41.294749911 277.0
41.299673767 304.0
41.304597623 302.0
41.309521479 345.0
41.314445335 358.0
41.319369191 347.0
41.324293047 385.0
41.329216903 368.0
41.334140759 392.0
41.339064615 405.0
41.343988471 373.0
41.348912327 395.0
41.353836183 373.0
41.358760039 449.0
41.363683895 413.0
41.368607751 425.0
41.373531607 462.0
41.378455463 506.0
41.383379319 541.0
41.388303175 545.0
41.393227031 574.0
41.398150887 674.0
41.403074743 722.0
41.407998599 736.0
41.412922455 783.0
41.417846311 821.0
41.422770167 918.0
41.427694023 912.0
41.432617879 919.0
41.437541735 975.0
41.442465591 968.0
41.447389447 952.0
41.452313303 960.0
41.457237159 927.0
41.462161015 941.0
41.467084871 964.0
41.472008727 922.0
41.476932583 912.0
41.481856439 966.0
41.486780295 962.0
41.491704151 957.0
41.496628007 997.0
41.501551863 1043.0
41.506475719 1115.0
41.511399575 1133.0
41.516323431 1260.0
41.521247287 1362.0
41.526171143 1458.0
41.531094999 1589.0
41.536018855 1769.0
41.540942711 2138.0
41.545866567 2356.0
41.550790423 2781.0
41.555714279 3336.0
41.560638135 4101.0
41.565561991 5041.0
41.570485847 6650.0
41.575409703 9638.0
41.580333559 14645.0
41.585257415 23304.0
41.590181271 34434.0
41.595105127 44779.0
41.600028983 52124.0
41.604952839 56335.0
41.609876695 59108.0
41.614800551 61238.0
41.619724407 61299.0
41.624648263 61689.0
41.629572119 60447.0
41.634495975 57707.0
41.639419831 51980.0
41.644343687 41586.0
41.649267543 29959.0
41.654191399 20439.0
41.659115255 14165.0
41.664039111 10310.0
41.668962967 8075.0
41.673886823 7206.0
41.678810679 7083.0
41.683734535 7877.0
41.688658391 9868.0
41.693582247 13753.0
41.698506103 18683.0
41.703429959 23391.0
41.708353815 27276.0
41.713277671 29384.0
41.718201527 30330.0
41.723125383 30898.0
41.728049239 31522.0
41.732973095 30921.0
41.737896951 30033.0
41.742820807 28328.0
41.747744663 25332.0
41.752668520 20411.0
41.757592376 15386.0
41.762516232 10403.0
41.767440088 7386.0
41.772363944 5185.0
41.777287800 3822.0
41.782211656 2994.0
41.787135512 2438.0
41.792059368 2010.0
41.796983224 1723.0
41.801907080 1578.0
41.806830936 1358.0
41.811754792 1371.0
41.816678648 1193.0
41.821602504 1074.0
41.826526360 975.0
41.831450216 959.0
41.836374072 947.0
41.841297928 867.0
41.846221784 745.0
41.851145640 768.0
41.856069496 709.0
41.860993352 676.0
41.865917208 665.0
41.870841064 607.0
41.875764920 611.0
41.880688776 579.0
41.885612632 533.0
41.890536488 546.0
41.895460344 534.0
41.900384200 536.0
41.905308056 454.0
41.910231912 432.0
41.915155768 463.0
41.920079624 412.0
41.925003480 476.0
41.929927336 425.0
41.934851192 413.0
41.939775048 414.0
41.944698904 410.0
41.949622760 371.0
41.954546616 380.0
41.959470472 403.0
41.964394328 363.0
41.969318184 362.0
41.974242040 375.0
41.979165896 327.0
41.984089752 365.0
41.989013608 332.0
41.993937464 369.0
41.998861320 358.0
42.003785176 333.0
42.008709032 345.0
42.013632888 347.0
42.018556744 294.0
42.023480600 335.0
42.028404456 339.0
42.033328312 286.0
42.038252168 272.0
42.043176024 281.0
42.048099880 300.0
42.053023736 285.0
42.057947592 260.0
42.062871448 264.0
42.067795304 258.0
42.072719160 268.0
42.077643016 222.0
42.082566872 261.0
42.087490728 228.0
42.092414584 259.0
42.097338440 228.0
42.102262296 255.0
42.107186152 263.0
42.112110008 229.0
42.117033864 257.0
42.121957720 223.0
42.126881576 233.0
42.131805432 231.0
42.136729288 216.0
42.141653144 222.0
42.146577000 207.0
42.151500856 212.0
42.156424712 217.0
42.161348568 218.0
42.166272424 208.0
42.171196280 232.0
42.176120136 200.0
42.181043992 193.0
42.185967848 198.0
42.190891704 211.0
42.195815560 194.0
42.200739416 206.0
42.205663272 179.0
42.210587128 189.0
42.215510984 195.0
42.220434840 170.0
42.225358696 171.0
42.230282552 160.0
42.235206408 196.0
42.240130264 201.0
42.245054120 176.0
42.249977977 184.0
42.254901833 179.0
42.259825689 180.0
42.264749545 186.0
42.269673401 199.0
42.274597257 173.0
42.279521113 195.0
42.284444969 191.0
42.289368825 155.0
42.294292681 173.0
42.299216537 192.0
42.304140393 150.0
42.309064249 193.0
42.313988105 192.0
42.318911961 210.0
42.323835817 192.0
42.328759673 183.0
42.333683529 173.0
42.338607385 157.0
42.343531241 152.0
42.348455097 198.0
42.353378953 153.0
42.358302809 170.0
42.363226665 134.0
42.368150521 166.0
42.373074377 164.0
42.377998233 158.0
42.382922089 152.0
42.387845945 167.0
42.392769801 162.0
42.397693657 148.0
42.402617513 181.0
42.407541369 186.0
42.412465225 147.0
42.417389081 155.0
42.422312937 159.0
42.427236793 161.0
42.432160649 151.0
42.437084505 127.0
42.442008361 172.0
42.446932217 158.0
42.451856073 152.0
42.456779929 156.0
42.461703785 133.0
42.466627641 165.0
42.471551497 161.0
42.476475353 157.0
42.481399209 166.0
42.486323065 166.0
42.491246921 141.0
42.496170777 163.0
42.501094633 143.0
42.506018489 138.0
42.510942345 169.0
42.515866201 160.0
42.520790057 143.0
42.525713913 150.0
42.530637769 143.0
42.535561625 126.0
42.540485481 148.0
42.545409337 146.0
42.550333193 163.0
42.555257049 143.0
42.560180905 165.0
42.565104761 153.0
42.570028617 143.0
42.574952473 146.0
42.579876329 147.0
42.584800185 148.0
42.589724041 132.0
42.594647897 158.0
42.599571753 128.0
42.604495609 149.0
42.609419465 151.0
42.614343321 141.0
42.619267177 132.0
42.624191033 148.0
42.629114889 164.0
42.634038745 138.0
42.638962601 134.0
42.643886457 150.0
42.648810313 138.0
42.653734169 150.0
42.658658025 133.0
42.663581881 121.0
42.668505737 143.0
42.673429593 155.0
42.678353449 144.0
42.683277305 126.0
42.688201161 151.0
42.693125017 139.0
42.698048873 155.0
42.702972729 153.0
42.707896585 129.0
42.712820441 139.0
42.717744297 132.0
42.722668153 127.0
42.727592009 141.0
42.732515865 148.0
42.737439721 136.0
42.742363577 143.0
42.747287433 143.0
42.752211290 145.0
42.757135146 144.0
42.762059002 134.0
42.766982858 144.0
42.771906714 131.0
42.776830570 144.0
42.781754426 116.0
42.786678282 126.0
42.791602138 112.0
42.796525994 135.0
42.801449850 144.0
42.806373706 145.0
42.811297562 140.0
42.816221418 181.0
42.821145274 142.0
42.826069130 141.0
42.830992986 143.0
42.835916842 139.0
42.840840698 114.0
42.845764554 133.0
42.850688410 136.0
42.855612266 137.0
42.860536122 152.0
42.865459978 145.0
42.870383834 137.0
42.875307690 129.0
42.880231546 117.0
42.885155402 157.0
42.890079258 131.0
42.895003114 125.0
42.899926970 131.0
42.904850826 126.0
42.909774682 149.0
42.914698538 158.0
42.919622394 137.0
42.924546250 131.0
42.929470106 138.0
42.934393962 136.0
42.939317818 106.0
42.944241674 148.0
42.949165530 125.0
42.954089386 147.0
42.959013242 149.0
42.963937098 147.0
42.968860954 146.0
42.973784810 141.0
42.978708666 124.0
42.983632522 131.0
42.988556378 126.0
42.993480234 145.0
42.998404090 162.0
43.003327946 147.0
43.008251802 136.0
43.013175658 125.0
43.018099514 127.0
43.023023370 121.0
43.027947226 141.0
43.032871082 147.0
43.037794938 133.0
43.042718794 145.0
43.047642650 131.0
43.052566506 140.0
43.057490362 151.0
43.062414218 141.0
43.067338074 129.0
43.072261930 142.0
43.077185786 122.0
43.082109642 115.0
43.087033498 142.0
43.091957354 154.0
43.096881210 137.0
43.101805066 146.0
43.106728922 126.0
43.111652778 156.0
43.116576634 130.0
43.121500490 133.0
43.126424346 138.0
43.131348202 120.0
43.136272058 113.0
43.141195914 122.0
43.146119770 173.0
43.151043626 113.0
43.155967482 137.0
43.160891338 120.0
43.165815194 140.0
43.170739050 142.0
43.175662906 132.0
43.180586762 128.0
43.185510618 119.0
43.190434474 139.0
43.195358330 121.0
43.200282186 129.0
43.205206042 128.0
43.210129898 114.0
43.215053754 121.0
43.219977610 130.0
43.224901466 123.0
43.229825322 153.0
43.234749178 115.0
43.239673034 138.0
43.244596890 140.0
43.249520747 131.0
43.254444603 146.0
43.259368459 130.0
43.264292315 127.0
43.269216171 135.0
43.274140027 131.0
43.279063883 126.0
43.283987739 146.0
43.288911595 147.0
43.293835451 138.0
43.298759307 132.0
43.303683163 136.0
43.308607019 136.0
43.313530875 127.0
43.318454731 134.0
43.323378587 144.0
43.328302443 120.0
43.333226299 118.0
43.338150155 102.0
43.343074011 122.0
43.347997867 142.0
43.352921723 136.0
43.357845579 127.0
43.362769435 154.0
43.367693291 125.0
43.372617147 122.0
43.377541003 135.0
43.382464859 158.0
43.387388715 159.0
43.392312571 125.0
43.397236427 111.0
43.402160283 135.0
43.407084139 136.0
43.412007995 135.0
43.416931851 133.0
43.421855707 132.0
43.426779563 138.0
43.431703419 139.0
43.436627275 145.0
43.441551131 139.0
43.446474987 130.0
43.451398843 135.0
43.456322699 120.0
43.461246555 137.0
43.466170411 125.0
43.471094267 149.0
43.476018123 120.0
43.480941979 142.0
43.485865835 157.0
43.490789691 139.0
43.495713547 148.0
43.500637403 133.0
43.505561259 122.0
43.510485115 128.0
43.515408971 117.0
43.520332827 151.0
43.525256683 126.0
43.530180539 130.0
43.535104395 133.0
43.540028251 142.0
43.544952107 141.0
43.549875963 145.0
43.554799819 140.0
43.559723675 143.0
43.564647531 124.0
43.569571387 108.0
43.574495243 158.0
43.579419099 128.0
43.584342955 133.0
43.589266811 142.0
43.594190667 144.0
43.599114523 142.0
43.604038379 122.0
43.608962235 134.0
43.613886091 158.0
43.618809947 138.0
43.623733803 141.0
43.628657659 129.0
43.633581515 148.0
43.638505371 118.0
43.643429227 128.0
43.648353083 115.0
43.653276939 137.0
43.658200795 124.0
43.663124651 149.0
43.668048507 120.0
43.672972363 149.0
43.677896219 130.0
43.682820075 151.0
43.687743931 140.0
43.692667787 140.0
43.697591643 150.0
43.702515499 133.0
43.707439355 132.0
43.712363211 133.0
43.717287067 126.0
43.722210923 127.0
43.727134779 148.0
43.732058635 160.0
43.736982491 137.0
43.741906347 149.0
43.746830203 140.0
43.751754060 141.0
43.756677916 150.0
43.761601772 155.0
43.766525628 120.0
43.771449484 126.0
43.776373340 147.0
43.781297196 140.0
43.786221052 140.0
43.791144908 133.0
43.796068764 148.0
43.800992620 121.0
43.805916476 122.0
43.810840332 140.0
43.815764188 145.0
43.820688044 134.0
43.825611900 144.0
43.830535756 134.0
43.835459612 122.0
43.840383468 139.0
43.845307324 133.0
43.850231180 141.0
43.855155036 135.0
43.860078892 142.0
43.865002748 127.0
43.869926604 134.0
43.874850460 144.0
43.879774316 164.0
43.884698172 129.0
43.889622028 137.0
43.894545884 143.0
43.899469740 123.0
43.904393596 120.0
43.909317452 136.0
43.914241308 125.0
43.919165164 148.0
43.924089020 127.0
43.929012876 154.0
43.933936732 154.0
43.938860588 157.0
43.943784444 132.0
43.948708300 166.0
43.953632156 122.0
43.958556012 157.0
43.963479868 128.0
43.968403724 142.0
43.973327580 184.0
43.978251436 150.0
43.983175292 173.0
43.988099148 140.0
43.993023004 160.0
43.997946860 137.0
44.002870716 151.0
44.007794572 119.0
44.012718428 140.0
44.017642284 137.0
44.022566140 143.0
44.027489996 155.0
44.032413852 171.0
44.037337708 146.0
44.042261564 136.0
44.047185420 171.0
44.052109276 139.0
44.057033132 159.0
44.061956988 149.0
44.066880844 157.0
44.071804700 140.0
44.076728556 167.0
44.081652412 142.0
44.086576268 176.0
44.091500124 168.0
44.096423980 178.0
44.101347836 181.0
44.106271692 155.0
44.111195548 164.0
44.116119404 163.0
44.121043260 161.0
44.125967116 140.0
44.130890972 162.0
44.135814828 170.0
44.140738684 163.0
44.145662540 144.0
44.150586396 196.0
44.155510252 164.0
44.160434108 159.0
44.165357964 156.0
44.170281820 163.0
44.175205676 200.0
44.180129532 165.0
44.185053388 193.0
44.189977244 174.0
44.194901100 187.0
44.199824956 194.0
44.204748812 178.0
44.209672668 189.0
44.214596524 161.0
44.219520380 166.0
44.224444236 187.0
44.229368092 177.0
44.234291948 197.0
44.239215804 174.0
44.244139660 220.0
44.249063517 197.0
44.253987373 208.0
44.258911229 224.0
44.263835085 212.0
44.268758941 208.0
44.273682797 195.0
44.278606653 216.0
44.283530509 188.0
44.288454365 215.0
44.293378221 224.0
44.298302077 226.0
44.303225933 242.0
44.308149789 223.0
44.313073645 249.0
44.317997501 241.0
44.322921357 222.0
44.327845213 258.0
44.332769069 228.0
44.337692925 241.0
44.342616781 280.0
44.347540637 266.0
44.352464493 237.0
44.357388349 240.0
44.362312205 277.0
44.367236061 248.0
44.372159917 280.0
44.377083773 274.0
44.382007629 262.0
44.386931485 283.0
44.391855341 287.0
44.396779197 244.0
44.401703053 278.0
44.406626909 285.0
44.411550765 248.0
44.416474621 284.0
44.421398477 292.0
44.426322333 291.0
44.431246189 291.0
44.436170045 282.0
44.441093901 280.0
44.446017757 272.0
44.450941613 291.0
44.455865469 242.0
44.460789325 262.0
44.465713181 260.0
44.470637037 266.0
44.475560893 274.0
44.480484749 245.0
44.485408605 264.0
44.490332461 262.0
44.495256317 260.0
44.500180173 235.0
44.505104029 214.0
44.510027885 258.0
44.514951741 233.0
44.519875597 242.0
44.524799453 249.0
44.529723309 222.0
44.534647165 210.0
44.539571021 227.0
44.544494877 236.0
44.549418733 211.0
44.554342589 207.0
44.559266445 241.0
44.564190301 237.0
44.569114157 226.0
44.574038013 241.0
44.578961869 182.0
44.583885725 214.0
44.588809581 204.0
44.593733437 216.0
44.598657293 181.0
44.603581149 190.0
44.608505005 192.0
44.613428861 195.0
44.618352717 182.0
44.623276573 185.0
44.628200429 175.0
44.633124285 155.0
44.638048141 165.0
44.642971997 190.0
44.647895853 173.0
44.652819709 183.0
44.657743565 181.0
44.662667421 154.0
44.667591277 156.0
44.672515133 180.0
44.677438989 156.0
44.682362845 172.0
44.687286701 172.0
44.692210557 160.0
44.697134413 160.0
44.702058269 170.0
44.706982125 175.0
44.711905981 153.0
44.716829837 159.0
44.721753693 154.0
44.726677549 164.0
44.731601405 139.0
44.736525261 147.0
44.741449117 161.0
44.746372973 141.0
44.751296830 140.0
44.756220686 158.0
44.761144542 143.0
44.766068398 132.0
44.770992254 135.0
44.775916110 152.0
44.780839966 154.0
44.785763822 150.0
44.790687678 148.0
44.795611534 133.0
44.800535390 158.0
44.805459246 155.0
44.810383102 112.0
44.815306958 126.0
44.820230814 133.0
44.825154670 123.0
44.830078526 141.0
44.835002382 132.0
44.839926238 124.0
44.844850094 141.0
44.849773950 147.0
44.854697806 133.0
44.859621662 156.0
44.864545518 148.0
44.869469374 136.0
44.874393230 140.0
44.879317086 131.0
44.884240942 151.0
44.889164798 134.0
44.894088654 150.0
44.899012510 140.0
44.903936366 152.0
44.908860222 125.0
44.913784078 159.0
44.918707934 119.0
44.923631790 136.0
44.928555646 151.0
44.933479502 130.0
44.938403358 141.0
44.943327214 136.0
44.948251070 133.0
44.953174926 121.0
44.958098782 146.0
44.963022638 144.0
44.967946494 141.0
44.972870350 131.0
44.977794206 149.0
44.982718062 129.0
44.987641918 118.0
44.992565774 124.0
44.997489630 115.0
