45.002461930 111.0
45.007385786 117.0
45.012309642 99.0
45.017233498 137.0
45.022157354 124.0
45.027081210 99.0
45.032005066 101.0
45.036928922 103.0
45.041852778 95.0
45.046776634 110.0
45.051700490 99.0
45.056624346 111.0
45.061548202 100.0
45.066472058 118.0
45.071395914 102.0
45.076319770 86.0
45.081243626 104.0
45.086167482 94.0
45.091091338 124.0
45.096015194 120.0
45.100939050 94.0
45.105862906 93.0
45.110786762 96.0
45.115710618 104.0
45.120634474 99.0
45.125558330 115.0
45.130482186 98.0
45.135406042 106.0
45.140329898 116.0
45.145253754 95.0
45.150177610 89.0
45.155101466 117.0
45.160025322 118.0
45.164949178 103.0
45.169873034 115.0
45.174796890 108.0
45.179720746 103.0
45.184644602 116.0
45.189568458 108.0
45.194492314 107.0
45.199416170 111.0
45.204340026 90.0
45.209263882 133.0
45.214187738 108.0
45.219111594 115.0
45.224035450 120.0
45.228959306 118.0
45.233883162 112.0
45.238807018 102.0
45.243730874 101.0
45.248654730 113.0
45.253578587 116.0
45.258502443 114.0
45.263426299 93.0
45.268350155 86.0
45.273274011 108.0
45.278197867 127.0
45.283121723 116.0
45.288045579 109.0
45.292969435 108.0
45.297893291 92.0
45.302817147 128.0
45.307741003 99.0
45.312664859 116.0
45.317588715 105.0
45.322512571 111.0
45.327436427 113.0
45.332360283 94.0
45.337284139 113.0
45.342207995 112.0
45.347131851 110.0
45.352055707 105.0
45.356979563 121.0
45.361903419 97.0
45.366827275 98.0
45.371751131 104.0
45.376674987 102.0
45.381598843 95.0
45.386522699 92.0
45.391446555 92.0
45.396370411 111.0
45.401294267 108.0
45.406218123 106.0
45.411141979 91.0
45.416065835 125.0
45.420989691 84.0
45.425913547 107.0
45.430837403 99.0
45.435761259 98.0
45.440685115 111.0
45.445608971 99.0
45.450532827 119.0
45.455456683 106.0
45.460380539 110.0
45.465304395 117.0
45.470228251 101.0
45.475152107 115.0
45.480075963 97.0
45.484999819 97.0
45.489923675 97.0
45.494847531 102.0
45.499771387 120.0
45.504695243 105.0
45.509619099 116.0
45.514542955 105.0
45.519466811 98.0
45.524390667 84.0
45.529314523 86.0
45.534238379 102.0
45.539162235 112.0
45.544086091 104.0
45.549009947 107.0
45.553933803 104.0
45.558857659 102.0
45.563781515 85.0
45.568705371 101.0
45.573629227 99.0
45.578553083 84.0
45.583476939 110.0
45.588400795 110.0
45.593324651 85.0
45.598248507 99.0
45.603172363 92.0
45.608096219 111.0
45.613020075 115.0
45.617943931 92.0
45.622867787 84.0
45.627791643 109.0
45.632715499 102.0
45.637639355 119.0
45.642563211 100.0
45.647487067 110.0
45.652410923 109.0
45.657334779 100.0
45.662258635 109.0
45.667182491 99.0
45.672106347 105.0
45.677030203 100.0
45.681954059 100.0
45.686877915 90.0
45.691801771 105.0
45.696725627 113.0
45.701649483 128.0
45.706573339 129.0
45.711497195 118.0
45.716421051 117.0
45.721344907 111.0
45.726268763 106.0
45.731192619 97.0
45.736116475 103.0
45.741040331 94.0
45.745964187 99.0
45.750888043 88.0
45.755811900 100.0
45.760735756 96.0
45.765659612 100.0
45.770583468 120.0
45.775507324 83.0
45.780431180 104.0
45.785355036 88.0
45.790278892 99.0
45.795202748 101.0
45.800126604 110.0
45.805050460 103.0
45.809974316 96.0
45.814898172 100.0
45.819822028 121.0
45.824745884 118.0
45.829669740 108.0
45.834593596 106.0
45.839517452 89.0
45.844441308 95.0
45.849365164 99.0
45.854289020 127.0
45.859212876 105.0
45.864136732 89.0
45.869060588 116.0
45.873984444 88.0
45.878908300 133.0
45.883832156 100.0
45.888756012 107.0
45.893679868 122.0
45.898603724 98.0
45.903527580 115.0
45.908451436 91.0
45.913375292 101.0
45.918299148 100.0
45.923223004 87.0
45.928146860 98.0
45.933070716 109.0
45.937994572 90.0
45.942918428 106.0
45.947842284 108.0
45.952766140 112.0
45.957689996 105.0
45.962613852 101.0
45.967537708 106.0
45.972461564 118.0
45.977385420 100.0
45.982309276 112.0
45.987233132 109.0
45.992156988 106.0
45.997080844 95.0
46.002004700 112.0
46.006928556 110.0
46.011852412 96.0
46.016776268 94.0
46.021700124 94.0
46.026623980 96.0
46.031547836 114.0
46.036471692 99.0
46.041395548 108.0
46.046319404 110.0
46.051243260 100.0
46.056167116 93.0
46.061090972 107.0
46.066014828 109.0
46.070938684 98.0
46.075862540 106.0
46.080786396 93.0
46.085710252 101.0
46.090634108 113.0
46.095557964 111.0
46.100481820 106.0
46.105405676 102.0
46.110329532 89.0
46.115253388 101.0
46.120177244 108.0
46.125101100 109.0
46.130024956 117.0
46.134948812 116.0
46.139872668 116.0
46.144796524 112.0
46.149720380 125.0
46.154644236 109.0
46.159568092 106.0
46.164491948 89.0
46.169415804 99.0
46.174339660 84.0
46.179263516 92.0
46.184187372 94.0
46.189111228 114.0
46.194035084 117.0
46.198958940 106.0
46.203882796 112.0
46.208806652 90.0
46.213730508 113.0
46.218654364 90.0
46.223578220 90.0
46.228502076 99.0
46.233425932 107.0
46.238349788 88.0
46.243273644 97.0
46.248197500 102.0
46.253121357 103.0
46.258045213 101.0
46.262969069 116.0
46.267892925 105.0
46.272816781 92.0
46.277740637 105.0
46.282664493 85.0
46.287588349 107.0
46.292512205 107.0
46.297436061 101.0
46.302359917 120.0
46.307283773 95.0
46.312207629 119.0
46.317131485 110.0
46.322055341 99.0
46.326979197 86.0
46.331903053 93.0
46.336826909 94.0
46.341750765 98.0
46.346674621 82.0
46.351598477 80.0
46.356522333 102.0
46.361446189 100.0
46.366370045 98.0
46.371293901 111.0
46.376217757 104.0
46.381141613 111.0
46.386065469 106.0
46.390989325 108.0
46.395913181 92.0
46.400837037 105.0
46.405760893 95.0
46.410684749 104.0
46.415608605 113.0
46.420532461 111.0
46.425456317 91.0
46.430380173 96.0
46.435304029 93.0
46.440227885 108.0
46.445151741 101.0
46.450075597 112.0
46.454999453 118.0
46.459923309 107.0
46.464847165 105.0
46.469771021 114.0
46.474694877 87.0
46.479618733 116.0
46.484542589 98.0
46.489466445 105.0
46.494390301 93.0
46.499314157 90.0
46.504238013 117.0
46.509161869 106.0
46.514085725 102.0
46.519009581 108.0
46.523933437 109.0
46.528857293 129.0
46.533781149 110.0
46.538705005 103.0
46.543628861 109.0
46.548552717 84.0
46.553476573 93.0
46.558400429 88.0
46.563324285 95.0
46.568248141 110.0
46.573171997 98.0
46.578095853 104.0
46.583019709 114.0
46.587943565 93.0
46.592867421 103.0
46.597791277 109.0
46.602715133 96.0
46.607638989 111.0
46.612562845 110.0
46.617486701 114.0
46.622410557 110.0
46.627334413 119.0
46.632258269 88.0
46.637182125 99.0
46.642105981 101.0
46.647029837 132.0
46.651953693 132.0
46.656877549 96.0
46.661801405 99.0
46.666725261 100.0
46.671649117 107.0
46.676572973 122.0
46.681496829 130.0
46.686420685 110.0
46.691344541 100.0
46.696268397 113.0
46.701192253 111.0
46.706116109 111.0
46.711039965 128.0
46.715963821 119.0
46.720887677 139.0
46.725811533 115.0
46.730735389 102.0
46.735659245 151.0
46.740583101 104.0
46.745506957 115.0
46.750430813 121.0
46.755354670 109.0
46.760278526 111.0
46.765202382 112.0
46.770126238 102.0
46.775050094 105.0
46.779973950 121.0
46.784897806 103.0
46.789821662 124.0
46.794745518 96.0
46.799669374 130.0
46.804593230 114.0
46.809517086 120.0
46.814440942 118.0
46.819364798 105.0
46.824288654 120.0
46.829212510 111.0
46.834136366 134.0
46.839060222 112.0
46.843984078 120.0
46.848907934 110.0
46.853831790 129.0
46.858755646 103.0
46.863679502 134.0
46.868603358 128.0
46.873527214 129.0
46.878451070 121.0
46.883374926 134.0
46.888298782 130.0
46.893222638 129.0
46.898146494 101.0
46.903070350 121.0
46.907994206 117.0
46.912918062 123.0
46.917841918 129.0
46.922765774 133.0
46.927689630 133.0
46.932613486 105.0
46.937537342 102.0
46.942461198 109.0
46.947385054 129.0
46.952308910 127.0
46.957232766 129.0
46.962156622 120.0
46.967080478 138.0
46.972004334 130.0
46.976928190 150.0
46.981852046 109.0
46.986775902 136.0
46.991699758 121.0
46.996623614 141.0
47.001547470 151.0
47.006471326 157.0
47.011395182 188.0
47.016319038 147.0
47.021242894 166.0
47.026166750 173.0
47.031090606 185.0
47.036014462 195.0
47.040938318 200.0
47.045862174 277.0
47.050786030 326.0
47.055709886 356.0
47.060633742 415.0
47.065557598 542.0
47.070481454 577.0
47.075405310 725.0
47.080329166 880.0
47.085253022 988.0
47.090176878 1196.0
47.095100734 1336.0
47.100024590 1400.0
47.104948446 1469.0
47.109872302 1510.0
47.114796158 1521.0
47.119720014 1441.0
47.124643870 1481.0
47.129567726 1397.0
47.134491582 1191.0
47.139415438 1053.0
47.144339294 918.0
47.149263150 752.0
47.154187006 646.0
47.159110862 573.0
47.164034718 502.0
47.168958574 422.0
47.173882430 411.0
47.178806286 362.0
47.183730142 297.0
47.188653998 319.0
47.193577854 305.0
47.198501710 258.0
47.203425566 235.0
47.208349422 212.0
47.213273278 211.0
47.218197134 201.0
47.223120990 182.0
47.228044846 159.0
47.232968702 160.0
47.237892558 179.0
47.242816414 151.0
47.247740270 135.0
47.252664127 170.0
47.257587983 164.0
47.262511839 149.0
47.267435695 152.0
47.272359551 128.0
47.277283407 160.0
47.282207263 152.0
47.287131119 155.0
47.292054975 133.0
47.296978831 163.0
47.301902687 146.0
47.306826543 153.0
47.311750399 131.0
47.316674255 138.0
47.321598111 112.0
47.326521967 141.0
47.331445823 148.0
47.336369679 137.0
47.341293535 147.0
47.346217391 139.0
47.351141247 134.0
47.356065103 125.0
47.360988959 131.0
47.365912815 136.0
47.370836671 149.0
47.375760527 136.0
47.380684383 140.0
47.385608239 119.0
47.390532095 120.0
47.395455951 132.0
47.400379807 124.0
47.405303663 128.0
47.410227519 139.0
47.415151375 128.0
47.420075231 115.0
47.424999087 126.0
47.429922943 147.0
47.434846799 112.0
47.439770655 139.0
47.444694511 130.0
47.449618367 128.0
47.454542223 123.0
47.459466079 117.0
47.464389935 100.0
47.469313791 144.0
47.474237647 110.0
47.479161503 108.0
47.484085359 133.0
47.489009215 127.0
47.493933071 126.0
47.498856927 133.0
47.503780783 119.0
47.508704639 104.0
47.513628495 119.0
47.518552351 125.0
47.523476207 118.0
47.528400063 104.0
47.533323919 99.0
47.538247775 141.0
47.543171631 124.0
47.548095487 110.0
47.553019343 134.0
47.557943199 112.0
47.562867055 125.0
47.567790911 131.0
47.572714767 117.0
47.577638623 143.0
47.582562479 127.0
47.587486335 124.0
47.592410191 137.0
47.597334047 118.0
47.602257903 106.0
47.607181759 131.0
47.612105615 124.0
47.617029471 134.0
47.621953327 129.0
47.626877183 113.0
47.631801039 156.0
47.636724895 136.0
47.641648751 112.0
47.646572607 103.0
47.651496463 124.0
47.656420319 134.0
47.661344175 120.0
47.666268031 114.0
47.671191887 114.0
47.676115743 123.0
47.681039599 121.0
47.685963455 119.0
47.690887311 119.0
47.695811167 118.0
47.700735023 110.0
47.705658879 129.0
47.710582735 119.0
47.715506591 122.0
47.720430447 129.0
47.725354303 118.0
47.730278159 115.0
47.735202015 102.0
47.740125871 117.0
47.745049727 116.0
47.749973583 110.0
47.754897440 113.0
47.759821296 139.0
47.764745152 119.0
47.769669008 124.0
47.774592864 119.0
47.779516720 103.0
47.784440576 106.0
47.789364432 123.0
47.794288288 99.0
47.799212144 126.0
47.804136000 100.0
47.809059856 122.0
47.813983712 135.0
47.818907568 120.0
47.823831424 129.0
47.828755280 127.0
47.833679136 130.0
47.838602992 113.0
47.843526848 129.0
47.848450704 110.0
47.853374560 134.0
47.858298416 125.0
47.863222272 127.0
47.868146128 128.0
47.873069984 118.0
47.877993840 128.0
47.882917696 117.0
47.887841552 118.0
47.892765408 112.0
47.897689264 122.0
47.902613120 139.0
47.907536976 135.0
47.912460832 105.0
47.917384688 141.0
47.922308544 101.0
47.927232400 101.0
47.932156256 109.0
47.937080112 107.0
47.942003968 116.0
47.946927824 121.0
47.951851680 121.0
47.956775536 129.0
47.961699392 117.0
47.966623248 125.0
47.971547104 131.0
47.976470960 119.0
47.981394816 117.0
47.986318672 136.0
47.991242528 128.0
47.996166384 133.0
48.001090240 131.0
48.006014096 121.0
48.010937952 123.0
48.015861808 132.0
48.020785664 125.0
48.025709520 120.0
48.030633376 134.0
48.035557232 127.0
48.040481088 135.0
48.045404944 123.0
48.050328800 135.0
48.055252656 141.0
48.060176512 125.0
48.065100368 113.0
48.070024224 120.0
48.074948080 120.0
48.079871936 99.0
48.084795792 116.0
48.089719648 122.0
48.094643504 116.0
48.099567360 114.0
48.104491216 128.0
48.109415072 131.0
48.114338928 142.0
48.119262784 110.0
48.124186640 130.0
48.129110496 136.0
48.134034352 134.0
48.138958208 109.0
48.143882064 121.0
48.148805920 134.0
48.153729776 131.0
48.158653632 131.0
48.163577488 116.0
48.168501344 130.0
48.173425200 116.0
48.178349056 130.0
48.183272912 106.0
48.188196768 133.0
48.193120624 110.0
48.198044480 135.0
48.202968336 118.0
48.207892192 127.0
48.212816048 113.0
48.217739904 132.0
48.222663760 139.0
48.227587616 136.0
48.232511472 130.0
48.237435328 133.0
48.242359184 118.0
48.247283040 125.0
48.252206897 126.0
48.257130753 122.0
48.262054609 137.0
48.266978465 133.0
48.271902321 120.0
48.276826177 148.0
48.281750033 120.0
48.286673889 129.0
48.291597745 155.0
48.296521601 133.0
48.301445457 137.0
48.306369313 123.0
48.311293169 132.0
48.316217025 130.0
48.321140881 137.0
48.326064737 137.0
48.330988593 144.0
48.335912449 124.0
48.340836305 120.0
48.345760161 134.0
48.350684017 119.0
48.355607873 137.0
48.360531729 134.0
48.365455585 120.0
48.370379441 130.0
48.375303297 140.0
48.380227153 136.0
48.385151009 118.0
48.390074865 122.0
48.394998721 132.0
48.399922577 128.0
48.404846433 145.0
48.409770289 133.0
48.414694145 151.0
48.419618001 122.0
48.424541857 125.0
48.429465713 149.0
48.434389569 136.0
48.439313425 128.0
48.444237281 131.0
48.449161137 119.0
48.454084993 124.0
48.459008849 153.0
48.463932705 143.0
48.468856561 119.0
48.473780417 116.0
48.478704273 116.0
48.483628129 123.0
48.488551985 133.0
48.493475841 149.0
48.498399697 128.0
48.503323553 137.0
48.508247409 117.0
48.513171265 133.0
48.518095121 120.0
48.523018977 143.0
48.527942833 130.0
48.532866689 129.0
48.537790545 126.0
48.542714401 137.0
48.547638257 109.0
48.552562113 115.0
48.557485969 138.0
48.562409825 126.0
48.567333681 154.0
48.572257537 146.0
48.577181393 127.0
48.582105249 146.0
48.587029105 138.0
48.591952961 120.0
48.596876817 129.0
48.601800673 114.0
48.606724529 152.0
48.611648385 133.0
48.616572241 135.0
48.621496097 134.0
48.626419953 132.0
48.631343809 139.0
48.636267665 149.0
48.641191521 159.0
48.646115377 148.0
48.651039233 157.0
48.655963089 130.0
48.660886945 134.0
48.665810801 129.0
48.670734657 128.0
48.675658513 136.0
48.680582369 119.0
48.685506225 128.0
48.690430081 130.0
48.695353937 143.0
48.700277793 148.0
48.705201649 134.0
48.710125505 149.0
48.715049361 155.0
48.719973217 148.0
48.724897073 155.0
48.729820929 163.0
48.734744785 143.0
48.739668641 145.0
48.744592497 131.0
48.749516353 157.0
48.754440210 135.0
48.759364066 151.0
48.764287922 167.0
48.769211778 142.0
48.774135634 162.0
48.779059490 147.0
48.783983346 156.0
48.788907202 133.0
48.793831058 151.0
48.798754914 148.0
48.803678770 147.0
48.808602626 175.0
48.813526482 157.0
48.818450338 151.0
48.823374194 155.0
48.828298050 168.0
48.833221906 147.0
48.838145762 146.0
48.843069618 153.0
48.847993474 144.0
48.852917330 144.0
48.857841186 145.0
48.862765042 149.0
48.867688898 124.0
48.872612754 161.0
48.877536610 140.0
48.882460466 156.0
48.887384322 163.0
48.892308178 125.0
48.897232034 149.0
48.902155890 146.0
48.907079746 172.0
48.912003602 124.0
48.916927458 166.0
48.921851314 152.0
48.926775170 167.0
48.931699026 155.0
48.936622882 137.0
48.941546738 169.0
48.946470594 147.0
48.951394450 160.0
48.956318306 148.0
48.961242162 143.0
48.966166018 146.0
48.971089874 164.0
48.976013730 153.0
48.980937586 172.0
48.985861442 170.0
48.990785298 178.0
48.995709154 143.0
49.000633010 162.0
49.005556866 150.0
49.010480722 148.0
49.015404578 153.0
49.020328434 149.0
49.025252290 156.0
49.030176146 174.0
49.035100002 171.0
49.040023858 150.0
49.044947714 176.0
49.049871570 145.0
49.054795426 152.0
49.059719282 178.0
49.064643138 147.0
49.069566994 151.0
49.074490850 160.0
49.079414706 190.0
49.084338562 175.0
49.089262418 153.0
49.094186274 193.0
49.099110130 170.0
49.104033986 153.0
49.108957842 168.0
49.113881698 158.0
49.118805554 187.0
49.123729410 168.0
49.128653266 210.0
49.133577122 191.0
49.138500978 179.0
49.143424834 156.0
49.148348690 168.0
49.153272546 180.0
49.158196402 179.0
49.163120258 181.0
49.168044114 198.0
49.172967970 196.0
49.177891826 151.0
49.182815682 182.0
49.187739538 204.0
49.192663394 193.0
49.197587250 199.0
49.202511106 177.0
49.207434962 188.0
49.212358818 212.0
49.217282674 166.0
49.222206530 158.0
49.227130386 188.0
49.232054242 199.0
49.236978098 209.0
49.241901954 189.0
49.246825810 197.0
49.251749667 194.0
49.256673523 217.0
49.261597379 212.0
49.266521235 186.0
49.271445091 202.0
49.276368947 194.0
49.281292803 215.0
49.286216659 228.0
49.291140515 230.0
49.296064371 230.0
49.300988227 244.0
49.305912083 220.0
49.310835939 209.0
49.315759795 258.0
49.320683651 233.0
49.325607507 280.0
49.330531363 207.0
49.335455219 239.0
49.340379075 261.0
49.345302931 216.0
49.350226787 274.0
49.355150643 230.0
49.360074499 289.0
49.364998355 258.0
49.369922211 284.0
49.374846067 290.0
49.379769923 255.0
49.384693779 263.0
49.389617635 278.0
49.394541491 245.0
49.399465347 321.0
49.404389203 275.0
49.409313059 301.0
49.414236915 283.0
49.419160771 311.0
49.424084627 274.0
49.429008483 305.0
49.433932339 307.0
49.438856195 333.0
49.443780051 306.0
49.448703907 335.0
49.453627763 324.0
49.458551619 314.0
49.463475475 327.0
49.468399331 347.0
49.473323187 344.0
49.478247043 340.0
49.483170899 361.0
49.488094755 314.0
49.493018611 331.0
49.497942467 369.0
49.502866323 384.0
49.507790179 307.0
49.512714035 372.0
49.517637891 366.0
49.522561747 350.0
49.527485603 360.0
49.532409459 357.0
49.537333315 350.0
49.542257171 368.0
49.547181027 368.0
49.552104883 366.0
49.557028739 389.0
49.561952595 382.0
49.566876451 392.0
49.571800307 403.0
49.576724163 380.0
49.581648019 432.0
49.586571875 388.0
49.591495731 388.0
49.596419587 417.0
49.601343443 380.0
49.606267299 387.0
49.611191155 398.0
49.616115011 399.0
49.621038867 389.0
49.625962723 409.0
49.630886579 411.0
49.635810435 356.0
49.640734291 421.0
49.645658147 415.0
49.650582003 411.0
49.655505859 420.0
49.660429715 415.0
49.665353571 398.0
49.670277427 423.0
49.675201283 419.0
49.680125139 430.0
49.685048995 408.0
49.689972851 432.0
49.694896707 447.0
49.699820563 426.0
49.704744419 390.0
49.709668275 442.0
49.714592131 436.0
49.719515987 438.0
49.724439843 428.0
49.729363699 438.0
49.734287555 416.0
49.739211411 454.0
49.744135267 475.0
49.749059123 458.0
49.753982980 405.0
49.758906836 471.0
49.763830692 440.0
49.768754548 423.0
49.773678404 415.0
49.778602260 417.0
49.783526116 468.0
49.788449972 462.0
49.793373828 445.0
49.798297684 407.0
49.803221540 460.0
49.808145396 437.0
49.813069252 463.0
49.817993108 453.0
49.822916964 424.0
49.827840820 441.0
49.832764676 446.0
49.837688532 450.0
49.842612388 428.0
49.847536244 417.0
49.852460100 419.0
49.857383956 423.0
49.862307812 442.0
49.867231668 424.0
49.872155524 379.0
49.877079380 363.0
49.882003236 421.0
49.886927092 433.0
49.891850948 418.0
49.896774804 389.0
49.901698660 400.0
49.906622516 422.0
49.911546372 425.0
49.916470228 425.0
49.921394084 412.0
49.926317940 372.0
49.931241796 439.0
49.936165652 429.0
49.941089508 390.0
49.946013364 404.0
49.950937220 406.0
49.955861076 345.0
49.960784932 376.0
49.965708788 394.0
49.970632644 354.0
49.975556500 397.0
49.980480356 387.0
49.985404212 364.0
49.990328068 397.0
49.995251924 382.0
50.000175780 382.0
50.005099636 381.0
50.010023492 379.0
50.014947348 352.0
50.019871204 358.0
50.024795060 367.0
50.029718916 357.0
50.034642772 333.0
50.039566628 367.0
50.044490484 322.0
50.049414340 346.0
50.054338196 375.0
50.059262052 339.0
50.064185908 353.0
50.069109764 342.0
50.074033620 317.0
50.078957476 313.0
50.083881332 350.0
50.088805188 322.0
50.093729044 356.0
50.098652900 321.0
50.103576756 337.0
50.108500612 310.0
50.113424468 308.0
50.118348324 359.0
50.123272180 327.0
50.128196036 325.0
50.133119892 345.0
50.138043748 329.0
50.142967604 336.0
50.147891460 317.0
50.152815316 326.0
50.157739172 292.0
50.162663028 337.0
50.167586884 328.0
50.172510740 329.0
50.177434596 297.0
50.182358452 318.0
50.187282308 284.0
50.192206164 324.0
50.197130020 307.0
50.202053876 273.0
50.206977732 290.0
50.211901588 298.0
50.216825444 275.0
50.221749300 280.0
50.226673156 276.0
50.231597012 228.0
50.236520868 255.0
50.241444724 234.0
50.246368580 268.0
50.251292437 244.0
50.256216293 257.0
50.261140149 282.0
50.266064005 277.0
50.270987861 235.0
50.275911717 274.0
50.280835573 268.0
50.285759429 269.0
50.290683285 243.0
50.295607141 260.0
50.300530997 277.0
50.305454853 229.0
50.310378709 214.0
50.315302565 214.0
50.320226421 238.0
50.325150277 231.0
50.330074133 233.0
50.334997989 222.0
50.339921845 209.0
50.344845701 221.0
50.349769557 255.0
50.354693413 227.0
50.359617269 221.0
50.364541125 217.0
50.369464981 207.0
50.374388837 222.0
50.379312693 218.0
50.384236549 234.0
50.389160405 232.0
50.394084261 211.0
50.399008117 185.0
50.403931973 219.0
50.408855829 212.0
50.413779685 222.0
50.418703541 224.0
50.423627397 224.0
50.428551253 206.0
50.433475109 186.0
50.438398965 192.0
50.443322821 197.0
50.448246677 186.0
50.453170533 182.0
50.458094389 195.0
50.463018245 199.0
50.467942101 216.0
50.472865957 197.0
50.477789813 189.0
50.482713669 187.0
50.487637525 204.0
50.492561381 207.0
50.497485237 206.0
50.502409093 227.0
50.507332949 172.0
50.512256805 192.0
50.517180661 208.0
50.522104517 215.0
50.527028373 188.0
50.531952229 191.0
50.536876085 172.0
50.541799941 193.0
50.546723797 186.0
50.551647653 216.0
50.556571509 207.0
50.561495365 206.0
50.566419221 181.0
50.571343077 187.0
50.576266933 195.0
50.581190789 210.0
50.586114645 192.0
50.591038501 176.0
50.595962357 196.0
50.600886213 199.0
50.605810069 193.0
50.610733925 231.0
50.615657781 188.0
50.620581637 182.0
50.625505493 197.0
50.630429349 198.0
50.635353205 195.0
50.640277061 184.0
50.645200917 182.0
50.650124773 187.0
50.655048629 177.0
50.659972485 178.0
50.664896341 194.0
50.669820197 185.0
50.674744053 194.0
50.679667909 171.0
50.684591765 205.0
50.689515621 216.0
50.694439477 193.0
50.699363333 200.0
50.704287189 205.0
50.709211045 184.0
50.714134901 198.0
50.719058757 184.0
50.723982613 193.0
50.728906469 175.0
50.733830325 184.0
50.738754181 201.0
50.743678037 182.0
50.748601893 180.0
50.753525750 180.0
50.758449606 260.0
50.763373462 180.0
50.768297318 210.0
50.773221174 192.0
50.778145030 205.0
50.783068886 185.0
50.787992742 223.0
50.792916598 197.0
50.797840454 222.0
50.802764310 224.0
50.807688166 216.0
50.812612022 208.0
50.817535878 190.0
50.822459734 221.0
50.827383590 223.0
50.832307446 202.0
50.837231302 201.0
50.842155158 225.0
50.847079014 200.0
50.852002870 193.0
50.856926726 208.0
50.861850582 225.0
50.866774438 200.0
50.871698294 222.0
50.876622150 207.0
50.881546006 209.0
50.886469862 217.0
50.891393718 202.0
50.896317574 218.0
50.901241430 204.0
50.906165286 204.0
50.911089142 223.0
50.916012998 199.0
50.920936854 212.0
50.925860710 213.0
50.930784566 266.0
50.935708422 219.0
50.940632278 227.0
50.945556134 200.0
50.950479990 220.0
50.955403846 265.0
50.960327702 282.0
50.965251558 218.0
50.970175414 211.0
50.975099270 236.0
50.980023126 255.0
50.984946982 262.0
50.989870838 229.0
50.994794694 256.0
50.999718550 272.0
51.004642406 257.0
51.009566262 229.0
51.014490118 231.0
51.019413974 297.0
51.024337830 265.0
51.029261686 296.0
51.034185542 266.0
51.039109398 287.0
51.044033254 282.0
51.048957110 316.0
51.053880966 283.0
51.058804822 289.0
51.063728678 309.0
51.068652534 259.0
51.073576390 323.0
51.078500246 264.0
51.083424102 303.0
51.088347958 272.0
51.093271814 262.0
51.098195670 292.0
51.103119526 276.0
51.108043382 303.0
51.112967238 292.0
51.117891094 306.0
51.122814950 306.0
51.127738806 287.0
51.132662662 304.0
51.137586518 304.0
51.142510374 275.0
51.147434230 268.0
51.152358086 328.0
51.157281942 306.0
51.162205798 283.0
51.167129654 260.0
51.172053510 313.0
51.176977366 325.0
51.181901222 340.0
51.186825078 306.0
51.191748934 314.0
51.196672790 311.0
51.201596646 306.0
51.206520502 349.0
51.211444358 300.0
51.216368214 332.0
51.221292070 297.0
51.226215926 309.0
51.231139782 328.0
51.236063638 338.0
51.240987494 348.0
51.245911350 355.0
51.250835207 351.0
51.255759063 317.0
51.260682919 356.0
51.265606775 355.0
51.270530631 343.0
51.275454487 347.0
51.280378343 361.0
51.285302199 333.0
51.290226055 370.0
51.295149911 385.0
51.300073767 390.0
51.304997623 406.0
51.309921479 359.0
51.314845335 360.0
51.319769191 373.0
51.324693047 385.0
51.329616903 354.0
51.334540759 371.0
51.339464615 384.0
51.344388471 380.0
51.349312327 382.0
51.354236183 373.0
51.359160039 379.0
51.364083895 372.0
51.369007751 398.0
51.373931607 392.0
51.378855463 391.0
51.383779319 388.0
51.388703175 380.0
51.393627031 371.0
51.398550887 380.0
51.403474743 405.0
51.408398599 370.0
51.413322455 416.0
51.418246311 405.0
51.423170167 381.0
51.428094023 409.0
51.433017879 383.0
51.437941735 390.0
51.442865591 418.0
51.447789447 484.0
51.452713303 428.0
51.457637159 422.0
51.462561015 429.0
51.467484871 422.0
51.472408727 464.0
51.477332583 432.0
51.482256439 473.0
51.487180295 403.0
51.492104151 469.0
51.497028007 456.0
51.501951863 440.0
51.506875719 435.0
51.511799575 465.0
51.516723431 465.0
51.521647287 476.0
51.526571143 494.0
51.531494999 453.0
51.536418855 457.0
51.541342711 457.0
51.546266567 458.0
51.551190423 428.0
51.556114279 460.0
51.561038135 488.0
51.565961991 486.0
51.570885847 482.0
51.575809703 467.0
51.580733559 454.0
51.585657415 492.0
51.590581271 516.0
51.595505127 521.0
51.600428983 504.0
51.605352839 466.0
51.610276695 510.0
51.615200551 506.0
51.620124407 519.0
51.625048263 561.0
51.629972119 551.0
51.634895975 516.0
51.639819831 521.0
51.644743687 521.0
51.649667543 521.0
51.654591399 552.0
51.659515255 544.0
51.664439111 590.0
51.669362967 568.0
51.674286823 580.0
51.679210679 592.0
51.684134535 526.0
51.689058391 616.0
51.693982247 603.0
51.698906103 568.0
51.703829959 557.0
51.708753815 603.0
51.713677671 602.0
51.718601527 581.0
51.723525383 574.0
51.728449239 589.0
51.733373095 596.0
51.738296951 612.0
51.743220807 531.0
51.748144663 633.0
51.753068520 598.0
51.757992376 581.0
51.762916232 595.0
51.767840088 632.0
51.772763944 569.0
51.777687800 593.0
51.782611656 648.0
51.787535512 685.0
51.792459368 652.0
51.797383224 655.0
51.802307080 654.0
51.807230936 649.0
51.812154792 656.0
51.817078648 677.0
51.822002504 668.0
51.826926360 674.0
51.831850216 674.0
51.836774072 699.0
51.841697928 687.0
51.846621784 696.0
51.851545640 695.0
51.856469496 712.0
51.861393352 715.0
51.866317208 685.0
51.871241064 737.0
51.876164920 706.0
51.881088776 752.0
51.886012632 779.0
51.890936488 739.0
51.895860344 755.0
51.900784200 748.0
51.905708056 761.0
51.910631912 827.0
51.915555768 773.0
51.920479624 768.0
51.925403480 808.0
51.930327336 817.0
51.935251192 806.0
51.940175048 831.0
51.945098904 754.0
51.950022760 833.0
51.954946616 876.0
51.959870472 841.0
51.964794328 815.0
51.969718184 844.0
51.974642040 859.0
51.979565896 940.0
51.984489752 828.0
51.989413608 920.0
51.994337464 948.0
51.999261320 884.0
52.004185176 884.0
52.009109032 925.0
52.014032888 1006.0
52.018956744 949.0
52.023880600 972.0
52.028804456 996.0
52.033728312 1002.0
52.038652168 939.0
52.043576024 1066.0
52.048499880 992.0
52.053423736 1083.0
52.058347592 1053.0
52.063271448 1047.0
52.068195304 1132.0
52.073119160 1109.0
52.078043016 1165.0
52.082966872 1181.0
52.087890728 1242.0
52.092814584 1209.0
52.097738440 1182.0
52.102662296 1261.0
52.107586152 1295.0
52.112510008 1286.0
52.117433864 1298.0
52.122357720 1377.0
52.127281576 1407.0
52.132205432 1445.0
52.137129288 1534.0
52.142053144 1541.0
52.146977000 1516.0
52.151900856 1590.0
52.156824712 1617.0
52.161748568 1684.0
52.166672424 1648.0
52.171596280 1786.0
52.176520136 1892.0
52.181443992 1898.0
52.186367848 1966.0
52.191291704 2268.0
52.196215560 2426.0
52.201139416 2448.0
52.206063272 2614.0
52.210987128 2813.0
52.215910984 3040.0
52.220834840 3201.0
52.225758696 3484.0
52.230682552 3679.0
52.235606408 3863.0
52.240530264 3884.0
52.245454120 4188.0
52.250377977 4406.0
52.255301833 4462.0
52.260225689 4612.0
52.265149545 4735.0
52.270073401 4763.0
52.274997257 4783.0
52.279921113 4772.0
52.284844969 4787.0
52.289768825 4789.0
52.294692681 4704.0
52.299616537 4716.0
52.304540393 4674.0
52.309464249 4611.0
52.314388105 4530.0
52.319311961 4603.0
52.324235817 4609.0
52.329159673 4687.0
52.334083529 4552.0
52.339007385 4695.0
52.343931241 4965.0
52.348855097 5200.0
52.353778953 5438.0
52.358702809 5540.0
52.363626665 5841.0
52.368550521 6175.0
52.373474377 6463.0
52.378398233 6972.0
52.383322089 7557.0
52.388245945 8021.0
52.393169801 8739.0
52.398093657 9605.0
52.403017513 10619.0
52.407941369 11737.0
52.412865225 13060.0
52.417789081 14783.0
52.422712937 16978.0
52.427636793 19506.0
52.432560649 22503.0
52.437484505 26599.0
52.442408361 32305.0
52.447332217 40318.0
52.452256073 52216.0
52.457179929 69388.0
52.462103785 99531.0
52.467027641 146378.0
52.471951497 209710.0
52.476875353 272906.0
52.481799209 320419.0
52.486723065 351981.0
52.491646921 372289.0
52.496570777 386598.0
52.501494633 393004.0
52.506418489 393830.0
52.511342345 384983.0
52.516266201 368664.0
52.521190057 332629.0
52.526113913 277863.0
52.531037769 209188.0
52.535961625 150084.0
52.540885481 108143.0
52.545809337 80810.0
52.550733193 61623.0
52.555657049 49185.0
52.560580905 40405.0
52.565504761 34823.0
52.570428617 31402.0
52.575352473 30041.0
52.580276329 29737.0
52.585200185 31414.0
52.590124041 35204.0
52.595047897 42163.0
52.599971753 52496.0
52.604895609 70616.0
52.609819465 94897.0
52.614743321 123772.0
52.619667177 149680.0
52.624591033 170208.0
52.629514889 183682.0
52.634438745 193427.0
52.639362601 196645.0
52.644286457 198334.0
52.649210313 195076.0
52.654134169 188144.0
52.659058025 174606.0
52.663981881 152112.0
52.668905737 124446.0
52.673829593 95785.0
52.678753449 70513.0
52.683677305 52484.0
52.688601161 38866.0
52.693525017 29801.0
52.698448873 23806.0
52.703372729 18901.0
52.708296585 16158.0
52.713220441 13552.0
52.718144297 12046.0
52.723068153 10357.0
52.727992009 9268.0
52.732915865 8447.0
52.737839721 7859.0
52.742763577 6990.0
52.747687433 6681.0
52.752611290 6375.0
52.757535146 5930.0
52.762459002 5621.0
52.767382858 5179.0
52.772306714 4860.0
52.777230570 4523.0
52.782154426 4416.0
52.787078282 4241.0
52.792002138 3949.0
52.796925994 3901.0
52.801849850 3677.0
52.806773706 3426.0
52.811697562 3460.0
52.816621418 3274.0
52.821545274 3116.0
52.826469130 3072.0
52.831392986 2969.0
52.836316842 2846.0
52.841240698 2805.0
52.846164554 2654.0
52.851088410 2566.0
52.856012266 2488.0
52.860936122 2532.0
52.865859978 2217.0
52.870783834 2330.0
52.875707690 2207.0
52.880631546 2228.0
52.885555402 2090.0
52.890479258 2063.0
52.895403114 1947.0
52.900326970 1944.0
52.905250826 1847.0
52.910174682 1858.0
52.915098538 1781.0
52.920022394 1769.0
52.924946250 1760.0
52.929870106 1699.0
52.934793962 1641.0
52.939717818 1571.0
52.944641674 1629.0
52.949565530 1518.0
52.954489386 1487.0
52.959413242 1540.0
52.964337098 1454.0
52.969260954 1380.0
52.974184810 1383.0
52.979108666 1335.0
52.984032522 1311.0
52.988956378 1346.0
52.993880234 1271.0
52.998804090 1229.0
53.003727946 1158.0
53.008651802 1225.0
53.013575658 1136.0
53.018499514 1118.0
53.023423370 1143.0
53.028347226 1165.0
53.033271082 1098.0
53.038194938 1090.0
53.043118794 1085.0
53.048042650 1048.0
53.052966506 1071.0
53.057890362 974.0
53.062814218 998.0
53.067738074 972.0
53.072661930 985.0
53.077585786 955.0
53.082509642 949.0
53.087433498 947.0
53.092357354 879.0
53.097281210 913.0
53.102205066 914.0
53.107128922 866.0
53.112052778 856.0
53.116976634 861.0
53.121900490 866.0
53.126824346 823.0
53.131748202 821.0
53.136672058 830.0
53.141595914 830.0
53.146519770 807.0
53.151443626 750.0
53.156367482 772.0
53.161291338 788.0
53.166215194 775.0
53.171139050 752.0
53.176062906 685.0
53.180986762 734.0
53.185910618 740.0
53.190834474 706.0
53.195758330 663.0
53.200682186 746.0
53.205606042 664.0
53.210529898 685.0
53.215453754 749.0
53.220377610 670.0
53.225301466 639.0
53.230225322 649.0
53.235149178 650.0
53.240073034 644.0
53.244996890 608.0
53.249920747 616.0
53.254844603 606.0
53.259768459 596.0
53.264692315 617.0
53.269616171 602.0
53.274540027 586.0
53.279463883 622.0
53.284387739 592.0
53.289311595 589.0
53.294235451 554.0
53.299159307 585.0
53.304083163 544.0
53.309007019 528.0
53.313930875 528.0
53.318854731 532.0
53.323778587 497.0
53.328702443 552.0
53.333626299 492.0
53.338550155 534.0
53.343474011 537.0
53.348397867 524.0
53.353321723 486.0
53.358245579 480.0
53.363169435 462.0
53.368093291 469.0
53.373017147 473.0
53.377941003 502.0
53.382864859 433.0
53.387788715 477.0
53.392712571 429.0
53.397636427 466.0
53.402560283 448.0
53.407484139 461.0
53.412407995 490.0
53.417331851 434.0
53.422255707 458.0
53.427179563 431.0
53.432103419 455.0
53.437027275 419.0
53.441951131 458.0
53.446874987 456.0
53.451798843 414.0
53.456722699 432.0
53.461646555 402.0
53.466570411 399.0
53.471494267 392.0
53.476418123 384.0
53.481341979 417.0
53.486265835 369.0
53.491189691 402.0
53.496113547 344.0
53.501037403 376.0
53.505961259 352.0
53.510885115 378.0
53.515808971 358.0
53.520732827 333.0
53.525656683 337.0
53.530580539 325.0
53.535504395 326.0
53.540428251 338.0
53.545352107 346.0
53.550275963 339.0
53.555199819 358.0
53.560123675 310.0
53.565047531 336.0
53.569971387 309.0
53.574895243 328.0
53.579819099 365.0
53.584742955 334.0
53.589666811 327.0
53.594590667 287.0
53.599514523 307.0
53.604438379 293.0
53.609362235 310.0
53.614286091 309.0
53.619209947 291.0
53.624133803 298.0
53.629057659 298.0
53.633981515 281.0
53.638905371 318.0
53.643829227 318.0
53.648753083 269.0
53.653676939 286.0
53.658600795 302.0
53.663524651 286.0
53.668448507 271.0
53.673372363 277.0
53.678296219 308.0
53.683220075 229.0
53.688143931 302.0
53.693067787 262.0
53.697991643 267.0
53.702915499 271.0
53.707839355 229.0
53.712763211 298.0
53.717687067 277.0
53.722610923 227.0
53.727534779 260.0
53.732458635 230.0
53.737382491 256.0
53.742306347 269.0
53.747230203 278.0
53.752154060 284.0
53.757077916 221.0
53.762001772 219.0
53.766925628 219.0
53.771849484 217.0
53.776773340 191.0
53.781697196 272.0
53.786621052 214.0
53.791544908 233.0
53.796468764 269.0
53.801392620 227.0
53.806316476 223.0
53.811240332 215.0
53.816164188 231.0
53.821088044 218.0
53.826011900 213.0
53.830935756 195.0
53.835859612 209.0
53.840783468 222.0
53.845707324 191.0
53.850631180 215.0
53.855555036 209.0
53.860478892 199.0
53.865402748 222.0
53.870326604 178.0
53.875250460 209.0
53.880174316 218.0
53.885098172 186.0
53.890022028 202.0
53.894945884 208.0
53.899869740 210.0
53.904793596 191.0
53.909717452 192.0
53.914641308 217.0
53.919565164 214.0
53.924489020 205.0
53.929412876 215.0
53.934336732 190.0
53.939260588 200.0
53.944184444 210.0
53.949108300 206.0
53.954032156 197.0
53.958956012 186.0
53.963879868 217.0
53.968803724 213.0
53.973727580 208.0
53.978651436 190.0
53.983575292 184.0
53.988499148 179.0
53.993423004 188.0
53.998346860 189.0
54.003270716 182.0
54.008194572 194.0
54.013118428 201.0
54.018042284 176.0
54.022966140 221.0
54.027889996 177.0
54.032813852 195.0
54.037737708 187.0
54.042661564 189.0
54.047585420 179.0
54.052509276 175.0
54.057433132 159.0
54.062356988 147.0
54.067280844 196.0
54.072204700 175.0
54.077128556 186.0
54.082052412 191.0
54.086976268 182.0
54.091900124 151.0
54.096823980 183.0
54.101747836 170.0
54.106671692 188.0
54.111595548 161.0
54.116519404 156.0
54.121443260 189.0
54.126367116 190.0
54.131290972 155.0
54.136214828 170.0
54.141138684 187.0
54.146062540 165.0
54.150986396 161.0
54.155910252 167.0
54.160834108 157.0
54.165757964 173.0
54.170681820 180.0
54.175605676 174.0
54.180529532 174.0
54.185453388 178.0
54.190377244 184.0
54.195301100 157.0
54.200224956 183.0
54.205148812 164.0
54.210072668 165.0
54.214996524 173.0
54.219920380 150.0
54.224844236 149.0
54.229768092 171.0
54.234691948 169.0
54.239615804 170.0
54.244539660 166.0
54.249463517 171.0
54.254387373 163.0
54.259311229 178.0
54.264235085 162.0
54.269158941 167.0
54.274082797 174.0
54.279006653 145.0
54.283930509 154.0
54.288854365 156.0
54.293778221 151.0
54.298702077 161.0
54.303625933 178.0
54.308549789 167.0
54.313473645 175.0
54.318397501 166.0
54.323321357 181.0
54.328245213 168.0
54.333169069 163.0
54.338092925 163.0
54.343016781 156.0
54.347940637 164.0
54.352864493 163.0
54.357788349 166.0
54.362712205 163.0
54.367636061 193.0
54.372559917 153.0
54.377483773 161.0
54.382407629 135.0
54.387331485 167.0
54.392255341 159.0
54.397179197 131.0
54.402103053 162.0
54.407026909 159.0
54.411950765 124.0
54.416874621 173.0
54.421798477 131.0
54.426722333 138.0
54.431646189 140.0
54.436570045 163.0
54.441493901 150.0
54.446417757 135.0
54.451341613 128.0
54.456265469 176.0
54.461189325 162.0
54.466113181 143.0
54.471037037 159.0
54.475960893 158.0
54.480884749 145.0
54.485808605 148.0
54.490732461 158.0
54.495656317 151.0
54.500580173 148.0
54.505504029 173.0
54.510427885 182.0
54.515351741 137.0
54.520275597 155.0
54.525199453 143.0
54.530123309 161.0
54.535047165 147.0
54.539971021 151.0
54.544894877 142.0
54.549818733 148.0
54.554742589 146.0
54.559666445 142.0
54.564590301 169.0
54.569514157 151.0
54.574438013 157.0
54.579361869 149.0
54.584285725 159.0
54.589209581 155.0
54.594133437 158.0
54.599057293 148.0
54.603981149 150.0
54.608905005 144.0
54.613828861 151.0
54.618752717 133.0
54.623676573 137.0
54.628600429 137.0
54.633524285 158.0
54.638448141 140.0
54.643371997 153.0
54.648295853 165.0
54.653219709 163.0
54.658143565 139.0
54.663067421 138.0
54.667991277 146.0
54.672915133 145.0
54.677838989 159.0
54.682762845 143.0
54.687686701 150.0
54.692610557 132.0
54.697534413 164.0
54.702458269 154.0
54.707382125 139.0
54.712305981 148.0
54.717229837 139.0
54.722153693 139.0
54.727077549 157.0
54.732001405 129.0
54.736925261 138.0
54.741849117 146.0
54.746772973 144.0
54.751696830 129.0
54.756620686 170.0
54.761544542 134.0
54.766468398 159.0
54.771392254 145.0
54.776316110 136.0
54.781239966 116.0
54.786163822 132.0
54.791087678 155.0
54.796011534 143.0
54.800935390 141.0
54.805859246 133.0
54.810783102 134.0
54.815706958 146.0
54.820630814 138.0
54.825554670 164.0
54.830478526 147.0
54.835402382 149.0
54.840326238 127.0
54.845250094 126.0
54.850173950 124.0
54.855097806 140.0
54.860021662 135.0
54.864945518 145.0
54.869869374 130.0
54.874793230 134.0
54.879717086 135.0
54.884640942 127.0
54.889564798 162.0
54.894488654 150.0
54.899412510 132.0
54.904336366 150.0
54.909260222 146.0
54.914184078 137.0
54.919107934 149.0
54.924031790 127.0
54.928955646 136.0
54.933879502 130.0
54.938803358 135.0
54.943727214 141.0
54.948651070 141.0
54.953574926 151.0
54.958498782 171.0
54.963422638 127.0
54.968346494 141.0
54.973270350 149.0
54.978194206 150.0
54.983118062 144.0
54.988041918 123.0
54.992965774 154.0
54.997889630 147.0
