55.001861930 121.0
55.006785786 126.0
55.011709642 113.0
55.016633498 151.0
55.021557354 122.0
55.026481210 114.0
55.031405066 109.0
55.036328922 150.0
55.041252778 126.0
55.046176634 147.0
55.051100490 127.0
55.056024346 117.0
55.060948202 121.0
55.065872058 128.0
55.070795914 133.0
55.075719770 123.0
55.080643626 132.0
55.085567482 110.0
55.090491338 105.0
55.095415194 106.0
55.100339050 142.0
55.105262906 136.0
55.110186762 126.0
55.115110618 144.0
55.120034474 119.0
55.124958330 111.0
55.129882186 121.0
55.134806042 102.0
55.139729898 127.0
55.144653754 127.0
55.149577610 107.0
55.154501466 140.0
55.159425322 112.0
55.164349178 145.0
55.169273034 132.0
55.174196890 130.0
55.179120746 130.0
55.184044602 113.0
55.188968459 123.0
55.193892315 114.0
55.198816171 143.0
55.203740027 156.0
55.208663883 135.0
55.213587739 117.0
55.218511595 119.0
55.223435451 125.0
55.228359307 107.0
55.233283163 127.0
55.238207019 137.0
55.243130875 139.0
55.248054731 146.0
55.252978587 118.0
55.257902443 138.0
55.262826299 155.0
55.267750155 129.0
55.272674011 125.0
55.277597867 131.0
55.282521723 122.0
55.287445579 126.0
55.292369435 131.0
55.297293291 141.0
55.302217147 121.0
55.307141003 145.0
55.312064859 134.0
55.316988715 131.0
55.321912571 144.0
55.326836427 118.0
55.331760283 144.0
55.336684139 137.0
55.341607995 145.0
55.346531851 144.0
55.351455707 129.0
55.356379563 137.0
55.361303419 143.0
55.366227275 124.0
55.371151131 148.0
55.376074987 134.0
55.380998843 108.0
55.385922699 140.0
55.390846555 161.0
55.395770411 111.0
55.400694267 128.0
55.405618123 116.0
55.410541979 135.0
55.415465835 127.0
55.420389691 121.0
55.425313547 120.0
55.430237403 104.0
55.435161259 126.0
55.440085115 116.0
55.445008971 115.0
55.449932827 140.0
55.454856683 124.0
55.459780539 123.0
55.464704395 145.0
55.469628251 140.0
55.474552107 112.0
55.479475963 149.0
55.484399819 98.0
55.489323675 109.0
55.494247531 123.0
55.499171387 119.0
55.504095243 94.0
55.509019099 114.0
55.513942955 114.0
55.518866811 121.0
55.523790667 107.0
55.528714523 139.0
55.533638379 145.0
55.538562235 122.0
55.543486091 143.0
55.548409947 124.0
55.553333803 134.0
55.558257660 148.0
55.563181516 141.0
55.568105372 129.0
55.573029228 135.0
55.577953084 134.0
55.582876940 114.0
55.587800796 123.0
55.592724652 123.0
55.597648508 142.0
55.602572364 116.0
55.607496220 141.0
55.612420076 141.0
55.617343932 121.0
55.622267788 144.0
55.627191644 119.0
55.632115500 135.0
55.637039356 114.0
55.641963212 136.0
55.646887068 136.0
55.651810924 123.0
55.656734780 112.0
55.661658636 137.0
55.666582492 122.0
55.671506348 122.0
55.676430204 110.0
55.681354060 119.0
55.686277916 122.0
55.691201772 151.0
55.696125628 138.0
55.701049484 138.0
55.705973340 125.0
55.710897196 117.0
55.715821052 121.0
55.720744908 131.0
55.725668764 120.0
55.730592620 121.0
55.735516476 151.0
55.740440332 116.0
55.745364188 105.0
55.750288044 113.0
55.755211900 136.0
55.760135756 119.0
55.765059612 149.0
55.769983468 117.0
55.774907324 120.0
55.779831180 145.0
55.784755036 120.0
55.789678892 139.0
55.794602748 115.0
55.799526604 136.0
55.804450460 139.0
55.809374316 162.0
55.814298172 130.0
55.819222028 107.0
55.824145884 131.0
55.829069740 126.0
55.833993596 133.0
55.838917452 127.0
55.843841308 132.0
55.848765164 136.0
55.853689020 113.0
55.858612876 132.0
55.863536732 131.0
55.868460588 125.0
55.873384444 112.0
55.878308300 117.0
55.883232156 132.0
55.888156012 138.0
55.893079868 126.0
55.898003724 123.0
55.902927580 162.0
55.907851436 134.0
55.912775292 138.0
55.917699148 123.0
55.922623004 117.0
55.927546860 139.0
55.932470717 119.0
55.937394573 118.0
55.942318429 112.0
55.947242285 122.0
55.952166141 122.0
55.957089997 133.0
55.962013853 128.0
55.966937709 130.0
55.971861565 132.0
55.976785421 136.0
55.981709277 111.0
55.986633133 125.0
55.991556989 108.0
55.996480845 115.0
56.001404701 112.0
56.006328557 121.0
56.011252413 135.0
56.016176269 112.0
56.021100125 137.0
56.026023981 120.0
56.030947837 156.0
56.035871693 127.0
56.040795549 122.0
56.045719405 102.0
56.050643261 111.0
56.055567117 128.0
56.060490973 114.0
56.065414829 134.0
56.070338685 143.0
56.075262541 135.0
56.080186397 131.0
56.085110253 143.0
56.090034109 142.0
56.094957965 139.0
56.099881821 129.0
56.104805677 138.0
56.109729533 129.0
56.114653389 119.0
56.119577245 111.0
56.124501101 133.0
56.129424957 119.0
56.134348813 118.0
56.139272669 121.0
56.144196525 124.0
56.149120381 147.0
56.154044237 133.0
56.158968093 142.0
56.163891949 132.0
56.168815805 126.0
56.173739661 149.0
56.178663517 123.0
56.183587373 125.0
56.188511229 142.0
56.193435085 136.0
56.198358941 149.0
56.203282797 131.0
56.208206653 164.0
56.213130509 110.0
56.218054365 125.0
56.222978221 136.0
56.227902077 131.0
56.232825933 115.0
56.237749789 138.0
56.242673645 125.0
56.247597501 129.0
56.252521357 134.0
56.257445213 116.0
56.262369069 146.0
56.267292925 155.0
56.272216781 136.0
56.277140637 137.0
56.282064493 158.0
56.286988349 128.0
56.291912205 146.0
56.296836061 132.0
56.301759918 129.0
56.306683774 136.0
56.311607630 117.0
56.316531486 134.0
56.321455342 101.0
56.326379198 110.0
56.331303054 111.0
56.336226910 117.0
56.341150766 112.0
56.346074622 123.0
56.350998478 127.0
56.355922334 112.0
56.360846190 133.0
56.365770046 152.0
56.370693902 136.0
56.375617758 142.0
56.380541614 133.0
56.385465470 135.0
56.390389326 110.0
56.395313182 115.0
56.400237038 130.0
56.405160894 131.0
56.410084750 117.0
56.415008606 121.0
56.419932462 130.0
56.424856318 156.0
56.429780174 118.0
56.434704030 123.0
56.439627886 130.0
56.444551742 128.0
56.449475598 133.0
56.454399454 124.0
56.459323310 125.0
56.464247166 127.0
56.469171022 122.0
56.474094878 140.0
56.479018734 134.0
56.483942590 127.0
56.488866446 131.0
56.493790302 131.0
56.498714158 136.0
56.503638014 126.0
56.508561870 119.0
56.513485726 133.0
56.518409582 115.0
56.523333438 130.0
56.528257294 134.0
56.533181150 141.0
56.538105006 144.0
56.543028862 135.0
56.547952718 120.0
56.552876574 137.0
56.557800430 143.0
56.562724286 125.0
56.567648142 125.0
56.572571998 126.0
56.577495854 148.0
56.582419710 131.0
56.587343566 131.0
56.592267422 146.0
56.597191278 117.0
56.602115134 129.0
56.607038990 127.0
56.611962846 123.0
56.616886702 118.0
56.621810558 117.0
56.626734414 139.0
56.631658270 137.0
56.636582126 130.0
56.641505982 121.0
56.646429838 134.0
56.651353694 147.0
56.656277550 136.0
56.661201406 118.0
56.666125262 133.0
56.671049119 106.0
56.675972975 128.0
56.680896831 154.0
56.685820687 126.0
56.690744543 132.0
56.695668399 114.0
56.700592255 113.0
56.705516111 140.0
56.710439967 138.0
56.715363823 119.0
56.720287679 124.0
56.725211535 152.0
56.730135391 136.0
56.735059247 127.0
56.739983103 141.0
56.744906959 111.0
56.749830815 131.0
56.754754671 120.0
56.759678527 131.0
56.764602383 154.0
56.769526239 124.0
56.774450095 123.0
56.779373951 137.0
56.784297807 127.0
56.789221663 133.0
56.794145519 119.0
56.799069375 125.0
56.803993231 130.0
56.808917087 124.0
56.813840943 131.0
56.818764799 142.0
56.823688655 105.0
56.828612511 124.0
56.833536367 129.0
56.838460223 124.0
56.843384079 121.0
56.848307935 115.0
56.853231791 135.0
56.858155647 147.0
56.863079503 150.0
56.868003359 147.0
56.872927215 148.0
56.877851071 114.0
56.882774927 151.0
56.887698783 147.0
56.892622639 158.0
56.897546495 116.0
56.902470351 130.0
56.907394207 151.0
56.912318063 116.0
56.917241919 135.0
56.922165775 150.0
56.927089631 154.0
56.932013487 144.0
56.936937343 143.0
56.941861199 148.0
56.946785055 125.0
56.951708911 139.0
56.956632767 145.0
56.961556623 143.0
56.966480479 131.0
56.971404335 123.0
56.976328191 119.0
56.981252047 132.0
56.986175903 131.0
56.991099759 131.0
56.996023615 150.0
57.000947471 130.0
57.005871327 168.0
57.010795183 130.0
57.015719039 135.0
57.020642895 147.0
57.025566751 121.0
57.030490607 117.0
57.035414463 119.0
57.040338320 142.0
57.045262176 135.0
57.050186032 97.0
57.055109888 125.0
57.060033744 124.0
57.064957600 161.0
57.069881456 144.0
57.074805312 130.0
57.079729168 123.0
57.084653024 114.0
57.089576880 129.0
57.094500736 147.0
57.099424592 122.0
57.104348448 148.0
57.109272304 149.0
57.114196160 132.0
57.119120016 142.0
57.124043872 153.0
57.128967728 129.0
57.133891584 146.0
57.138815440 131.0
57.143739296 121.0
57.148663152 126.0
57.153587008 135.0
57.158510864 120.0
57.163434720 130.0
57.168358576 115.0
57.173282432 119.0
57.178206288 127.0
57.183130144 123.0
57.188054000 141.0
57.192977856 119.0
57.197901712 150.0
57.202825568 135.0
57.207749424 123.0
57.212673280 118.0
57.217597136 120.0
57.222520992 110.0
57.227444848 116.0
57.232368704 135.0
57.237292560 126.0
57.242216416 125.0
57.247140272 126.0
57.252064128 134.0
57.256987984 133.0
57.261911840 141.0
57.266835696 138.0
57.271759552 128.0
57.276683408 134.0
57.281607264 104.0
57.286531120 119.0
57.291454976 137.0
57.296378832 130.0
57.301302688 150.0
57.306226544 130.0
57.311150400 151.0
57.316074256 133.0
57.320998112 125.0
57.325921968 124.0
57.330845824 140.0
57.335769680 121.0
57.340693536 124.0
57.345617392 157.0
57.350541248 137.0
57.355465104 123.0
57.360388960 129.0
57.365312816 132.0
57.370236672 116.0
57.375160528 134.0
57.380084384 139.0
57.385008240 124.0
57.389932096 139.0
57.394855952 132.0
57.399779808 140.0
57.404703664 156.0
57.409627521 144.0
57.414551377 142.0
57.419475233 139.0
57.424399089 138.0
57.429322945 132.0
57.434246801 154.0
57.439170657 151.0
57.444094513 124.0
57.449018369 152.0
57.453942225 137.0
57.458866081 138.0
57.463789937 133.0
57.468713793 142.0
57.473637649 134.0
57.478561505 116.0
57.483485361 129.0
57.488409217 131.0
57.493333073 111.0
57.498256929 155.0
57.503180785 150.0
57.508104641 117.0
57.513028497 114.0
57.517952353 117.0
57.522876209 141.0
57.527800065 125.0
57.532723921 133.0
57.537647777 144.0
57.542571633 123.0
57.547495489 106.0
57.552419345 129.0
57.557343201 168.0
57.562267057 103.0
57.567190913 151.0
57.572114769 120.0
57.577038625 118.0
57.581962481 149.0
57.586886337 143.0
57.591810193 111.0
57.596734049 151.0
57.601657905 139.0
57.606581761 158.0
57.611505617 122.0
57.616429473 146.0
57.621353329 146.0
57.626277185 132.0
57.631201041 137.0
57.636124897 112.0
57.641048753 148.0
57.645972609 123.0
57.650896465 150.0
57.655820321 120.0
57.660744177 112.0
57.665668033 128.0
57.670591889 136.0
57.675515745 140.0
57.680439601 147.0
57.685363457 156.0
57.690287313 134.0
57.695211169 131.0
57.700135025 134.0
57.705058881 133.0
57.709982737 135.0
57.714906593 139.0
57.719830449 144.0
57.724754305 132.0
57.729678161 124.0
57.734602017 151.0
57.739525873 147.0
57.744449729 122.0
57.749373585 163.0
57.754297441 130.0
57.759221297 131.0
57.764145153 149.0
57.769069009 145.0
57.773992865 147.0
57.778916721 130.0
57.783840578 121.0
57.788764434 130.0
57.793688290 135.0
57.798612146 142.0
57.803536002 118.0
57.808459858 137.0
57.813383714 146.0
57.818307570 119.0
57.823231426 147.0
57.828155282 140.0
57.833079138 122.0
57.838002994 130.0
57.842926850 141.0
57.847850706 132.0
57.852774562 136.0
57.857698418 124.0
57.862622274 130.0
57.867546130 125.0
57.872469986 128.0
57.877393842 134.0
57.882317698 139.0
57.887241554 137.0
57.892165410 101.0
57.897089266 137.0
57.902013122 142.0
57.906936978 147.0
57.911860834 129.0
57.916784690 149.0
57.921708546 120.0
57.926632402 139.0
57.931556258 148.0
57.936480114 124.0
57.941403970 128.0
57.946327826 110.0
57.951251682 132.0
57.956175538 133.0
57.961099394 152.0
57.966023250 136.0
57.970947106 128.0
57.975870962 113.0
57.980794818 144.0
57.985718674 140.0
57.990642530 134.0
57.995566386 140.0
58.000490242 142.0
58.005414098 120.0
58.010337954 136.0
58.015261810 149.0
58.020185666 134.0
58.025109522 139.0
58.030033378 132.0
58.034957234 173.0
58.039881090 112.0
58.044804946 135.0
58.049728802 126.0
58.054652658 148.0
58.059576514 128.0
58.064500370 126.0
58.069424226 145.0
58.074348082 127.0
58.079271938 128.0
58.084195794 114.0
58.089119650 148.0
58.094043506 153.0
58.098967362 125.0
58.103891218 132.0
58.108815074 144.0
58.113738930 121.0
58.118662786 125.0
58.123586642 141.0
58.128510498 137.0
58.133434354 148.0
58.138358210 138.0
58.143282066 133.0
58.148205922 137.0
58.153129779 130.0
58.158053635 136.0
58.162977491 117.0
58.167901347 132.0
58.172825203 128.0
58.177749059 124.0
58.182672915 157.0
58.187596771 129.0
58.192520627 149.0
58.197444483 138.0
58.202368339 125.0
58.207292195 126.0
58.212216051 127.0
58.217139907 141.0
58.222063763 135.0
58.226987619 134.0
58.231911475 149.0
58.236835331 143.0
58.241759187 134.0
58.246683043 125.0
58.251606899 159.0
58.256530755 133.0
58.261454611 127.0
58.266378467 136.0
58.271302323 137.0
58.276226179 137.0
58.281150035 122.0
58.286073891 137.0
58.290997747 129.0
58.295921603 151.0
58.300845459 175.0
58.305769315 130.0
58.310693171 136.0
58.315617027 142.0
58.320540883 124.0
58.325464739 117.0
58.330388595 107.0
58.335312451 129.0
58.340236307 131.0
58.345160163 125.0
58.350084019 159.0
58.355007875 122.0
58.359931731 129.0
58.364855587 120.0
58.369779443 131.0
58.374703299 139.0
58.379627155 128.0
58.384551011 128.0
58.389474867 154.0
58.394398723 115.0
58.399322579 125.0
58.404246435 130.0
58.409170291 141.0
58.414094147 134.0
58.419018003 127.0
58.423941859 119.0
58.428865715 132.0
58.433789571 120.0
58.438713427 117.0
58.443637283 134.0
58.448561139 113.0
58.453484995 110.0
58.458408851 143.0
58.463332707 130.0
58.468256563 146.0
58.473180419 127.0
58.478104275 115.0
58.483028131 134.0
58.487951987 120.0
58.492875843 147.0
58.497799699 115.0
58.502723555 130.0
58.507647411 121.0
58.512571267 139.0
58.517495123 121.0
58.522418980 148.0
58.527342836 113.0
58.532266692 132.0
58.537190548 137.0
58.542114404 160.0
58.547038260 131.0
58.551962116 118.0
58.556885972 145.0
58.561809828 157.0
58.566733684 127.0
58.571657540 155.0
58.576581396 152.0
58.581505252 144.0
58.586429108 162.0
58.591352964 140.0
58.596276820 131.0
58.601200676 142.0
58.606124532 139.0
58.611048388 128.0
58.615972244 138.0
58.620896100 137.0
58.625819956 131.0
58.630743812 149.0
58.635667668 127.0
58.640591524 158.0
58.645515380 136.0
58.650439236 132.0
58.655363092 123.0
58.660286948 136.0
58.665210804 135.0
58.670134660 135.0
58.675058516 141.0
58.679982372 117.0
58.684906228 134.0
58.689830084 126.0
58.694753940 126.0
58.699677796 132.0
58.704601652 144.0
58.709525508 142.0
58.714449364 132.0
58.719373220 132.0
58.724297076 126.0
58.729220932 136.0
58.734144788 142.0
58.739068644 141.0
58.743992500 133.0
58.748916356 116.0
58.753840212 140.0
58.758764068 129.0
58.763687924 123.0
58.768611780 153.0
58.773535636 129.0
58.778459492 154.0
58.783383348 160.0
58.788307204 156.0
58.793231060 137.0
58.798154916 147.0
58.803078772 127.0
58.808002628 119.0
58.812926484 121.0
58.817850340 139.0
58.822774196 129.0
58.827698052 134.0
58.832621908 112.0
58.837545764 134.0
58.842469620 124.0
58.847393476 142.0
58.852317332 143.0
58.857241188 124.0
58.862165044 143.0
58.867088900 125.0
58.872012756 152.0
58.876936612 135.0
58.881860468 124.0
58.886784324 111.0
58.891708181 134.0
58.896632037 135.0
58.901555893 134.0
58.906479749 149.0
58.911403605 132.0
58.916327461 129.0
58.921251317 125.0
58.926175173 128.0
58.931099029 143.0
58.936022885 115.0
58.940946741 127.0
58.945870597 142.0
58.950794453 116.0
58.955718309 120.0
58.960642165 131.0
58.965566021 141.0
58.970489877 138.0
58.975413733 135.0
58.980337589 125.0
58.985261445 118.0
58.990185301 127.0
58.995109157 129.0
59.000033013 149.0
59.004956869 129.0
59.009880725 156.0
59.014804581 146.0
59.019728437 131.0
59.024652293 118.0
59.029576149 127.0
59.034500005 129.0
59.039423861 136.0
59.044347717 134.0
59.049271573 127.0
59.054195429 135.0
59.059119285 131.0
59.064043141 129.0
59.068966997 130.0
59.073890853 142.0
59.078814709 136.0
59.083738565 132.0
59.088662421 131.0
59.093586277 141.0
59.098510133 124.0
59.103433989 152.0
59.108357845 139.0
59.113281701 125.0
59.118205557 142.0
59.123129413 132.0
59.128053269 135.0
59.132977125 109.0
59.137900981 129.0
59.142824837 142.0
59.147748693 149.0
59.152672549 134.0
59.157596405 139.0
59.162520261 134.0
59.167444117 115.0
59.172367973 148.0
59.177291829 133.0
59.182215685 156.0
59.187139541 136.0
59.192063397 112.0
59.196987253 139.0
59.201911109 116.0
59.206834965 141.0
59.211758821 148.0
59.216682677 137.0
59.221606533 139.0
59.226530389 145.0
59.231454245 134.0
59.236378101 141.0
59.241301957 120.0
59.246225813 126.0
59.251149669 143.0
59.256073525 163.0
59.260997382 127.0
59.265921238 141.0
59.270845094 146.0
59.275768950 129.0
59.280692806 124.0
59.285616662 142.0
59.290540518 125.0
59.295464374 139.0
59.300388230 140.0
59.305312086 141.0
59.310235942 138.0
59.315159798 115.0
59.320083654 127.0
59.325007510 124.0
59.329931366 133.0
59.334855222 115.0
59.339779078 143.0
59.344702934 147.0
59.349626790 149.0
59.354550646 141.0
59.359474502 140.0
59.364398358 155.0
59.369322214 131.0
59.374246070 143.0
59.379169926 111.0
59.384093782 143.0
59.389017638 133.0
59.393941494 131.0
59.398865350 137.0
59.403789206 120.0
59.408713062 122.0
59.413636918 128.0
59.418560774 129.0
59.423484630 117.0
59.428408486 144.0
59.433332342 118.0
59.438256198 150.0
59.443180054 124.0
59.448103910 152.0
59.453027766 136.0
59.457951622 132.0
59.462875478 138.0
59.467799334 131.0
59.472723190 129.0
59.477647046 139.0
59.482570902 129.0
59.487494758 123.0
59.492418614 143.0
59.497342470 113.0
59.502266326 125.0
59.507190182 120.0
59.512114038 131.0
59.517037894 133.0
59.521961750 139.0
59.526885606 147.0
59.531809462 138.0
59.536733318 141.0
59.541657174 121.0
59.546581030 120.0
59.551504886 146.0
59.556428742 126.0
59.561352598 150.0
59.566276454 135.0
59.571200310 136.0
59.576124166 135.0
59.581048022 140.0
59.585971878 133.0
59.590895734 124.0
59.595819590 114.0
59.600743446 128.0
59.605667302 132.0
59.610591158 125.0
59.615515014 146.0
59.620438870 134.0
59.625362726 143.0
59.630286582 135.0
59.635210439 129.0
59.640134295 154.0
59.645058151 126.0
59.649982007 145.0
59.654905863 147.0
59.659829719 142.0
59.664753575 131.0
59.669677431 140.0
59.674601287 98.0
59.679525143 119.0
59.684448999 132.0
59.689372855 145.0
59.694296711 135.0
59.699220567 132.0
59.704144423 143.0
59.709068279 133.0
59.713992135 136.0
59.718915991 149.0
59.723839847 124.0
59.728763703 124.0
59.733687559 134.0
59.738611415 131.0
59.743535271 139.0
59.748459127 126.0
59.753382983 133.0
59.758306839 136.0
59.763230695 150.0
59.768154551 136.0
59.773078407 135.0
59.778002263 121.0
59.782926119 129.0
59.787849975 135.0
59.792773831 140.0
59.797697687 141.0
59.802621543 150.0
59.807545399 123.0
59.812469255 123.0
59.817393111 127.0
59.822316967 126.0
59.827240823 153.0
59.832164679 145.0
59.837088535 126.0
59.842012391 135.0
59.846936247 117.0
59.851860103 137.0
59.856783959 133.0
59.861707815 134.0
59.866631671 125.0
59.871555527 137.0
59.876479383 121.0
59.881403239 130.0
59.886327095 153.0
59.891250951 113.0
59.896174807 118.0
59.901098663 133.0
59.906022519 146.0
59.910946375 138.0
59.915870231 146.0
59.920794087 125.0
59.925717943 113.0
59.930641799 125.0
59.935565655 127.0
59.940489511 129.0
59.945413367 129.0
59.950337223 137.0
59.955261079 143.0
59.960184935 128.0
59.965108791 120.0
59.970032647 129.0
59.974956503 137.0
59.979880359 129.0
59.984804215 137.0
59.989728071 124.0
59.994651927 131.0
59.999575783 156.0
60.004499640 128.0
60.009423496 131.0
60.014347352 132.0
60.019271208 141.0
60.024195064 133.0
60.029118920 147.0
60.034042776 141.0
60.038966632 129.0
60.043890488 121.0
60.048814344 127.0
60.053738200 152.0
60.058662056 137.0
60.063585912 158.0
60.068509768 144.0
60.073433624 122.0
60.078357480 128.0
60.083281336 116.0
60.088205192 142.0
60.093129048 129.0
60.098052904 138.0
60.102976760 124.0
60.107900616 129.0
60.112824472 143.0
60.117748328 122.0
60.122672184 144.0
60.127596040 142.0
60.132519896 145.0
60.137443752 133.0
60.142367608 131.0
60.147291464 134.0
60.152215320 126.0
60.157139176 154.0
60.162063032 143.0
60.166986888 148.0
60.171910744 140.0
60.176834600 143.0
60.181758456 157.0
60.186682312 118.0
60.191606168 149.0
60.196530024 124.0
60.201453880 138.0
60.206377736 121.0
60.211301592 149.0
60.216225448 146.0
60.221149304 170.0
60.226073160 140.0
60.230997016 157.0
60.235920872 115.0
60.240844728 148.0
60.245768584 143.0
60.250692440 128.0
60.255616296 154.0
60.260540152 140.0
60.265464008 146.0
60.270387864 144.0
60.275311720 150.0
60.280235576 133.0
60.285159432 140.0
60.290083288 145.0
60.295007144 138.0
60.299931000 143.0
60.304854856 159.0
60.309778712 160.0
60.314702568 166.0
60.319626424 160.0
60.324550280 169.0
60.329474136 156.0
60.334397992 156.0
60.339321848 151.0
60.344245704 163.0
60.349169560 164.0
60.354093416 138.0
60.359017272 140.0
60.363941128 135.0
60.368864984 166.0
60.373788841 149.0
60.378712697 159.0
60.383636553 167.0
60.388560409 171.0
60.393484265 137.0
60.398408121 140.0
60.403331977 144.0
60.408255833 177.0
60.413179689 167.0
60.418103545 145.0
60.423027401 154.0
60.427951257 155.0
60.432875113 155.0
60.437798969 149.0
60.442722825 130.0
60.447646681 135.0
60.452570537 126.0
60.457494393 146.0
60.462418249 145.0
60.467342105 186.0
60.472265961 165.0
60.477189817 173.0
60.482113673 159.0
60.487037529 128.0
60.491961385 148.0
60.496885241 145.0
60.501809097 118.0
60.506732953 166.0
60.511656809 135.0
60.516580665 128.0
60.521504521 142.0
60.526428377 146.0
60.531352233 155.0
60.536276089 157.0
60.541199945 143.0
60.546123801 157.0
60.551047657 149.0
60.555971513 144.0
60.560895369 134.0
60.565819225 151.0
60.570743081 133.0
60.575666937 155.0
60.580590793 153.0
60.585514649 148.0
60.590438505 149.0
60.595362361 140.0
60.600286217 130.0
60.605210073 153.0
60.610133929 161.0
60.615057785 134.0
60.619981641 143.0
60.624905497 151.0
60.629829353 145.0
60.634753209 152.0
60.639677065 157.0
60.644600921 142.0
60.649524777 173.0
60.654448633 157.0
60.659372489 140.0
60.664296345 164.0
60.669220201 144.0
60.674144057 152.0
60.679067913 149.0
60.683991769 167.0
60.688915625 162.0
60.693839481 155.0
60.698763337 163.0
60.703687193 150.0
60.708611049 177.0
60.713534905 169.0
60.718458761 175.0
60.723382617 188.0
60.728306473 189.0
60.733230329 198.0
60.738154185 196.0
60.743078042 198.0
60.748001898 190.0
60.752925754 214.0
60.757849610 259.0
60.762773466 226.0
60.767697322 273.0
60.772621178 333.0
60.777545034 366.0
60.782468890 394.0
60.787392746 442.0
60.792316602 439.0
60.797240458 531.0
60.802164314 595.0
60.807088170 675.0
60.812012026 776.0
60.816935882 845.0
60.821859738 948.0
60.826783594 1090.0
60.831707450 1156.0
60.836631306 1210.0
60.841555162 1273.0
60.846479018 1273.0
60.851402874 1294.0
60.856326730 1268.0
60.861250586 1213.0
60.866174442 1186.0
60.871098298 1104.0
60.876022154 1106.0
60.880946010 1009.0
60.885869866 932.0
60.890793722 936.0
60.895717578 945.0
60.900641434 937.0
60.905565290 851.0
60.910489146 857.0
60.915413002 837.0
60.920336858 792.0
60.925260714 685.0
60.930184570 643.0
60.935108426 661.0
60.940032282 609.0
60.944956138 476.0
60.949879994 510.0
60.954803850 461.0
60.959727706 410.0
60.964651562 347.0
60.969575418 332.0
60.974499274 308.0
60.979423130 311.0
60.984346986 307.0
60.989270842 225.0
60.994194698 260.0
60.999118554 221.0
61.004042410 206.0
61.008966266 240.0
61.013890122 182.0
61.018813978 202.0
61.023737834 225.0
61.028661690 219.0
61.033585546 197.0
61.038509402 189.0
61.043433258 198.0
61.048357114 178.0
61.053280970 177.0
61.058204826 159.0
61.063128682 176.0
61.068052538 174.0
61.072976394 173.0
61.077900250 194.0
61.082824106 144.0
61.087747962 179.0
61.092671818 172.0
61.097595674 172.0
61.102519530 171.0
61.107443386 170.0
61.112367243 157.0
61.117291099 170.0
61.122214955 165.0
61.127138811 158.0
61.132062667 161.0
61.136986523 183.0
61.141910379 158.0
61.146834235 176.0
61.151758091 187.0
61.156681947 169.0
61.161605803 142.0
61.166529659 161.0
61.171453515 171.0
61.176377371 170.0
61.181301227 145.0
61.186225083 145.0
61.191148939 165.0
61.196072795 148.0
61.200996651 137.0
61.205920507 152.0
61.210844363 148.0
61.215768219 150.0
61.220692075 149.0
61.225615931 144.0
61.230539787 164.0
61.235463643 146.0
61.240387499 157.0
61.245311355 171.0
61.250235211 154.0
61.255159067 172.0
61.260082923 149.0
61.265006779 149.0
61.269930635 154.0
61.274854491 166.0
61.279778347 125.0
61.284702203 160.0
61.289626059 158.0
61.294549915 134.0
61.299473771 147.0
61.304397627 148.0
61.309321483 165.0
61.314245339 132.0
61.319169195 143.0
61.324093051 146.0
61.329016907 153.0
61.333940763 126.0
61.338864619 141.0
61.343788475 172.0
61.348712331 128.0
61.353636187 157.0
61.358560043 125.0
61.363483899 159.0
61.368407755 155.0
61.373331611 140.0
61.378255467 151.0
61.383179323 142.0
61.388103179 128.0
61.393027035 148.0
61.397950891 124.0
61.402874747 160.0
61.407798603 146.0
61.412722459 128.0
61.417646315 157.0
61.422570171 145.0
61.427494027 137.0
61.432417883 152.0
61.437341739 142.0
61.442265595 152.0
61.447189451 151.0
61.452113307 147.0
61.457037163 140.0
61.461961019 155.0
61.466884875 140.0
61.471808731 163.0
61.476732587 144.0
61.481656443 142.0
61.486580300 158.0
61.491504156 157.0
61.496428012 142.0
61.501351868 141.0
61.506275724 142.0
61.511199580 140.0
61.516123436 136.0
61.521047292 129.0
61.525971148 131.0
61.530895004 146.0
61.535818860 133.0
61.540742716 147.0
61.545666572 150.0
61.550590428 158.0
61.555514284 121.0
61.560438140 146.0
61.565361996 151.0
61.570285852 132.0
61.575209708 140.0
61.580133564 126.0
61.585057420 155.0
61.589981276 148.0
61.594905132 156.0
61.599828988 145.0
61.604752844 153.0
61.609676700 141.0
61.614600556 122.0
61.619524412 144.0
61.624448268 144.0
61.629372124 151.0
61.634295980 146.0
61.639219836 144.0
61.644143692 143.0
61.649067548 145.0
61.653991404 149.0
61.658915260 153.0
61.663839116 142.0
61.668762972 121.0
61.673686828 140.0
61.678610684 123.0
61.683534540 139.0
61.688458396 168.0
61.693382252 144.0
61.698306108 141.0
61.703229964 146.0
61.708153820 141.0
61.713077676 129.0
61.718001532 161.0
61.722925388 131.0
61.727849244 158.0
61.732773100 137.0
61.737696956 158.0
61.742620812 146.0
61.747544668 162.0
61.752468524 121.0
61.757392380 142.0
61.762316236 124.0
61.767240092 140.0
61.772163948 135.0
61.777087804 138.0
61.782011660 150.0
61.786935516 140.0
61.791859372 148.0
61.796783228 146.0
61.801707084 137.0
61.806630940 154.0
61.811554796 154.0
61.816478652 139.0
61.821402508 145.0
61.826326364 142.0
61.831250220 133.0
61.836174076 150.0
61.841097932 156.0
61.846021788 140.0
61.850945644 128.0
61.855869501 149.0
61.860793357 139.0
61.865717213 143.0
61.870641069 132.0
61.875564925 135.0
61.880488781 142.0
61.885412637 127.0
61.890336493 140.0
61.895260349 145.0
61.900184205 145.0
61.905108061 166.0
61.910031917 153.0
61.914955773 169.0
61.919879629 151.0
61.924803485 129.0
61.929727341 131.0
61.934651197 156.0
61.939575053 139.0
61.944498909 144.0
61.949422765 160.0
61.954346621 132.0
61.959270477 123.0
61.964194333 164.0
61.969118189 136.0
61.974042045 156.0
61.978965901 153.0
61.983889757 141.0
61.988813613 129.0
61.993737469 140.0
61.998661325 126.0
62.003585181 134.0
62.008509037 128.0
62.013432893 121.0
62.018356749 132.0
62.023280605 153.0
62.028204461 138.0
62.033128317 135.0
62.038052173 135.0
62.042976029 133.0
62.047899885 155.0
62.052823741 119.0
62.057747597 142.0
62.062671453 141.0
62.067595309 144.0
62.072519165 121.0
62.077443021 148.0
62.082366877 124.0
62.087290733 153.0
62.092214589 138.0
62.097138445 146.0
62.102062301 141.0
62.106986157 147.0
62.111910013 130.0
62.116833869 118.0
62.121757725 134.0
62.126681581 148.0
62.131605437 134.0
62.136529293 123.0
62.141453149 118.0
62.146377005 143.0
62.151300861 133.0
62.156224717 138.0
62.161148573 157.0
62.166072429 147.0
62.170996285 148.0
62.175920141 147.0
62.180843997 130.0
62.185767853 150.0
62.190691709 161.0
62.195615565 132.0
62.200539421 142.0
62.205463277 140.0
62.210387133 147.0
62.215310989 140.0
62.220234845 157.0
62.225158702 126.0
62.230082558 151.0
62.235006414 137.0
62.239930270 157.0
62.244854126 148.0
62.249777982 152.0
62.254701838 150.0
62.259625694 136.0
62.264549550 136.0
62.269473406 156.0
62.274397262 158.0
62.279321118 136.0
62.284244974 136.0
62.289168830 146.0
62.294092686 145.0
62.299016542 127.0
62.303940398 112.0
62.308864254 165.0
62.313788110 131.0
62.318711966 139.0
62.323635822 154.0
62.328559678 133.0
62.333483534 146.0
62.338407390 150.0
62.343331246 143.0
62.348255102 141.0
62.353178958 144.0
62.358102814 119.0
62.363026670 151.0
62.367950526 133.0
62.372874382 155.0
62.377798238 132.0
62.382722094 136.0
62.387645950 160.0
62.392569806 127.0
62.397493662 146.0
62.402417518 150.0
62.407341374 173.0
62.412265230 160.0
62.417189086 139.0
62.422112942 137.0
62.427036798 142.0
62.431960654 166.0
62.436884510 151.0
62.441808366 146.0
62.446732222 141.0
62.451656078 136.0
62.456579934 139.0
62.461503790 141.0
62.466427646 140.0
62.471351502 139.0
62.476275358 165.0
62.481199214 152.0
62.486123070 151.0
62.491046926 143.0
62.495970782 135.0
62.500894638 139.0
62.505818494 138.0
62.510742350 130.0
62.515666206 148.0
62.520590062 144.0
62.525513918 128.0
62.530437774 139.0
62.535361630 138.0
62.540285486 156.0
62.545209342 155.0
62.550133198 172.0
62.555057054 137.0
62.559980910 128.0
62.564904766 152.0
62.569828622 135.0
62.574752478 139.0
62.579676334 138.0
62.584600190 140.0
62.589524046 136.0
62.594447903 160.0
62.599371759 151.0
62.604295615 154.0
62.609219471 131.0
62.614143327 139.0
62.619067183 151.0
62.623991039 156.0
62.628914895 133.0
62.633838751 135.0
62.638762607 163.0
62.643686463 162.0
62.648610319 134.0
62.653534175 147.0
62.658458031 154.0
62.663381887 124.0
62.668305743 159.0
62.673229599 146.0
62.678153455 166.0
62.683077311 136.0
62.688001167 129.0
62.692925023 146.0
62.697848879 156.0
62.702772735 149.0
62.707696591 134.0
62.712620447 150.0
62.717544303 144.0
62.722468159 145.0
62.727392015 118.0
62.732315871 127.0
62.737239727 135.0
62.742163583 131.0
62.747087439 157.0
62.752011295 133.0
62.756935151 127.0
62.761859007 135.0
62.766782863 164.0
62.771706719 159.0
62.776630575 152.0
62.781554431 150.0
62.786478287 134.0
62.791402143 165.0
62.796325999 167.0
62.801249855 151.0
62.806173711 151.0
62.811097567 137.0
62.816021423 145.0
62.820945279 150.0
62.825869135 150.0
62.830792991 132.0
62.835716847 142.0
62.840640703 151.0
62.845564559 138.0
62.850488415 121.0
62.855412271 143.0
62.860336127 142.0
62.865259983 131.0
62.870183839 138.0
62.875107695 150.0
62.880031551 141.0
62.884955407 123.0
62.889879263 136.0
62.894803119 144.0
62.899726975 134.0
62.904650831 136.0
62.909574687 144.0
62.914498543 143.0
62.919422399 146.0
62.924346255 130.0
62.929270111 144.0
62.934193967 145.0
62.939117823 143.0
62.944041679 150.0
62.948965535 144.0
62.953889391 149.0
62.958813247 151.0
62.963737104 134.0
62.968660960 134.0
62.973584816 149.0
62.978508672 140.0
62.983432528 150.0
62.988356384 139.0
62.993280240 147.0
62.998204096 150.0
63.003127952 120.0
63.008051808 132.0
63.012975664 141.0
63.017899520 129.0
63.022823376 124.0
63.027747232 163.0
63.032671088 153.0
63.037594944 113.0
63.042518800 140.0
63.047442656 151.0
63.052366512 163.0
63.057290368 120.0
63.062214224 121.0
63.067138080 135.0
63.072061936 154.0
63.076985792 129.0
63.081909648 148.0
63.086833504 149.0
63.091757360 162.0
63.096681216 146.0
63.101605072 144.0
63.106528928 156.0
63.111452784 142.0
63.116376640 144.0
63.121300496 136.0
63.126224352 136.0
63.131148208 165.0
63.136072064 160.0
63.140995920 148.0
63.145919776 153.0
63.150843632 140.0
63.155767488 148.0
63.160691344 155.0
63.165615200 150.0
63.170539056 148.0
63.175462912 167.0
63.180386768 144.0
63.185310624 138.0
63.190234480 154.0
63.195158336 150.0
63.200082192 170.0
63.205006048 132.0
63.209929904 146.0
63.214853760 143.0
63.219777616 155.0
63.224701472 145.0
63.229625328 122.0
63.234549184 157.0
63.239473040 155.0
63.244396896 141.0
63.249320752 128.0
63.254244608 149.0
63.259168464 128.0
63.264092320 149.0
63.269016176 158.0
63.273940032 176.0
63.278863888 139.0
63.283787744 114.0
63.288711600 134.0
63.293635456 138.0
63.298559312 137.0
63.303483168 124.0
63.308407024 166.0
63.313330880 153.0
63.318254736 155.0
63.323178592 147.0
63.328102448 136.0
63.333026304 156.0
63.337950161 150.0
63.342874017 121.0
63.347797873 155.0
63.352721729 156.0
63.357645585 150.0
63.362569441 132.0
63.367493297 149.0
63.372417153 156.0
63.377341009 159.0
63.382264865 168.0
63.387188721 157.0
63.392112577 167.0
63.397036433 149.0
63.401960289 136.0
63.406884145 143.0
63.411808001 182.0
63.416731857 148.0
63.421655713 147.0
63.426579569 171.0
63.431503425 165.0
63.436427281 161.0
63.441351137 152.0
63.446274993 150.0
63.451198849 160.0
63.456122705 150.0
63.461046561 166.0
63.465970417 139.0
63.470894273 145.0
63.475818129 133.0
63.480741985 151.0
63.485665841 151.0
63.490589697 147.0
63.495513553 129.0
63.500437409 145.0
63.505361265 142.0
63.510285121 166.0
63.515208977 156.0
63.520132833 148.0
63.525056689 161.0
63.529980545 172.0
63.534904401 158.0
63.539828257 152.0
63.544752113 145.0
63.549675969 136.0
63.554599825 140.0
63.559523681 139.0
63.564447537 166.0
63.569371393 135.0
63.574295249 171.0
63.579219105 151.0
63.584142961 165.0
63.589066817 145.0
63.593990673 146.0
63.598914529 138.0
63.603838385 156.0
63.608762241 142.0
63.613686097 144.0
63.618609953 140.0
63.623533809 149.0
63.628457665 151.0
63.633381521 162.0
63.638305377 168.0
63.643229233 141.0
63.648153089 144.0
63.653076945 158.0
63.658000801 127.0
63.662924657 150.0
63.667848513 154.0
63.672772369 138.0
63.677696225 170.0
63.682620081 162.0
63.687543937 169.0
63.692467793 176.0
63.697391649 162.0
63.702315505 173.0
63.707239362 156.0
63.712163218 165.0
63.717087074 171.0
63.722010930 157.0
63.726934786 173.0
63.731858642 172.0
63.736782498 142.0
63.741706354 129.0
63.746630210 138.0
63.751554066 143.0
63.756477922 157.0
63.761401778 135.0
63.766325634 148.0
63.771249490 176.0
63.776173346 162.0
63.781097202 176.0
63.786021058 161.0
63.790944914 176.0
63.795868770 152.0
63.800792626 155.0
63.805716482 171.0
63.810640338 160.0
63.815564194 155.0
63.820488050 160.0
63.825411906 142.0
63.830335762 173.0
63.835259618 164.0
63.840183474 171.0
63.845107330 161.0
63.850031186 160.0
63.854955042 176.0
63.859878898 161.0
63.864802754 151.0
63.869726610 150.0
63.874650466 168.0
63.879574322 165.0
63.884498178 158.0
63.889422034 144.0
63.894345890 154.0
63.899269746 161.0
63.904193602 163.0
63.909117458 158.0
63.914041314 156.0
63.918965170 151.0
63.923889026 151.0
63.928812882 161.0
63.933736738 161.0
63.938660594 161.0
63.943584450 174.0
63.948508306 150.0
63.953432162 179.0
63.958356018 161.0
63.963279874 178.0
63.968203730 175.0
63.973127586 177.0
63.978051442 160.0
63.982975298 157.0
63.987899154 174.0
63.992823010 170.0
63.997746866 167.0
64.002670722 168.0
64.007594578 141.0
64.012518434 183.0
64.017442290 166.0
64.022366146 180.0
64.027290002 171.0
64.032213858 160.0
64.037137714 160.0
64.042061570 169.0
64.046985426 196.0
64.051909282 152.0
64.056833138 166.0
64.061756994 159.0
64.066680850 182.0
64.071604706 169.0
64.076528563 164.0
64.081452419 183.0
64.086376275 177.0
64.091300131 189.0
64.096223987 164.0
64.101147843 183.0
64.106071699 175.0
64.110995555 196.0
64.115919411 148.0
64.120843267 165.0
64.125767123 180.0
64.130690979 164.0
64.135614835 158.0
64.140538691 170.0
64.145462547 192.0
64.150386403 192.0
64.155310259 167.0
64.160234115 184.0
64.165157971 175.0
64.170081827 168.0
64.175005683 166.0
64.179929539 180.0
64.184853395 186.0
64.189777251 174.0
64.194701107 179.0
64.199624963 179.0
64.204548819 185.0
64.209472675 161.0
64.214396531 185.0
64.219320387 188.0
64.224244243 172.0
64.229168099 179.0
64.234091955 193.0
64.239015811 201.0
64.243939667 163.0
64.248863523 182.0
64.253787379 179.0
64.258711235 196.0
64.263635091 169.0
64.268558947 206.0
64.273482803 175.0
64.278406659 217.0
64.283330515 227.0
64.288254371 230.0
64.293178227 214.0
64.298102083 182.0
64.303025939 201.0
64.307949795 206.0
64.312873651 185.0
64.317797507 197.0
64.322721363 211.0
64.327645219 202.0
64.332569075 221.0
64.337492931 220.0
64.342416787 187.0
64.347340643 215.0
64.352264499 207.0
64.357188355 183.0
64.362112211 231.0
64.367036067 187.0
64.371959923 204.0
64.376883779 202.0
64.381807635 214.0
64.386731491 227.0
64.391655347 225.0
64.396579203 261.0
64.401503059 210.0
64.406426915 208.0
64.411350771 235.0
64.416274627 219.0
64.421198483 211.0
64.426122339 229.0
64.431046195 227.0
64.435970051 209.0
64.440893907 213.0
64.445817764 205.0
64.450741620 222.0
64.455665476 232.0
64.460589332 273.0
64.465513188 244.0
64.470437044 233.0
64.475360900 228.0
64.480284756 245.0
64.485208612 213.0
64.490132468 239.0
64.495056324 240.0
64.499980180 233.0
64.504904036 244.0
64.509827892 270.0
64.514751748 258.0
64.519675604 234.0
64.524599460 244.0
64.529523316 242.0
64.534447172 287.0
64.539371028 269.0
64.544294884 285.0
64.549218740 302.0
64.554142596 267.0
64.559066452 268.0
64.563990308 268.0
64.568914164 275.0
64.573838020 309.0
64.578761876 258.0
64.583685732 312.0
64.588609588 294.0
64.593533444 346.0
64.598457300 295.0
64.603381156 294.0
64.608305012 292.0
64.613228868 325.0
64.618152724 329.0
64.623076580 317.0
64.628000436 329.0
64.632924292 325.0
64.637848148 306.0
64.642772004 291.0
64.647695860 348.0
64.652619716 334.0
64.657543572 336.0
64.662467428 385.0
64.667391284 372.0
64.672315140 380.0
64.677238996 386.0
64.682162852 346.0
64.687086708 319.0
64.692010564 396.0
64.696934420 405.0
64.701858276 348.0
64.706782132 381.0
64.711705988 386.0
64.716629844 415.0
64.721553700 374.0
64.726477556 400.0
64.731401412 443.0
64.736325268 454.0
64.741249124 402.0
64.746172980 461.0
64.751096836 483.0
64.756020692 423.0
64.760944548 445.0
64.765868404 484.0
64.770792260 441.0
64.775716116 483.0
64.780639972 490.0
64.785563828 472.0
64.790487684 454.0
64.795411540 483.0
64.800335396 512.0
64.805259252 497.0
64.810183108 585.0
64.815106965 530.0
64.820030821 518.0
64.824954677 518.0
64.829878533 563.0
64.834802389 559.0
64.839726245 553.0
64.844650101 595.0
64.849573957 548.0
64.854497813 574.0
64.859421669 587.0
64.864345525 606.0
64.869269381 607.0
64.874193237 573.0
64.879117093 639.0
64.884040949 642.0
64.888964805 607.0
64.893888661 617.0
64.898812517 591.0
64.903736373 651.0
64.908660229 634.0
64.913584085 664.0
64.918507941 693.0
64.923431797 661.0
64.928355653 667.0
64.933279509 691.0
64.938203365 665.0
64.943127221 675.0
64.948051077 741.0
64.952974933 720.0
64.957898789 731.0
64.962822645 690.0
64.967746501 722.0
64.972670357 681.0
64.977594213 732.0
64.982518069 727.0
64.987441925 714.0
64.992365781 689.0
64.997289637 733.0
65.002213493 710.0
65.007137349 720.0
65.012061205 728.0
65.016985061 741.0
65.021908917 729.0
65.026832773 719.0
65.031756629 729.0
65.036680485 749.0
65.041604341 747.0
65.046528197 739.0
65.051452053 710.0
65.056375909 792.0
65.061299765 793.0
65.066223621 740.0
65.071147477 694.0
65.076071333 791.0
65.080995189 758.0
65.085919045 703.0
65.090842901 739.0
65.095766757 714.0
65.100690613 692.0
65.105614469 729.0
65.110538325 717.0
65.115462181 762.0
65.120386037 737.0
65.125309893 747.0
65.130233749 689.0
65.135157605 736.0
65.140081461 736.0
65.145005317 694.0
65.149929173 685.0
65.154853029 700.0
65.159776885 708.0
65.164700741 724.0
65.169624597 656.0
65.174548453 662.0
65.179472309 675.0
65.184396165 651.0
65.189320022 647.0
65.194243878 624.0
65.199167734 684.0
65.204091590 607.0
65.209015446 642.0
65.213939302 626.0
65.218863158 662.0
65.223787014 608.0
65.228710870 648.0
65.233634726 627.0
65.238558582 608.0
65.243482438 569.0
65.248406294 598.0
65.253330150 633.0
65.258254006 577.0
65.263177862 595.0
65.268101718 580.0
65.273025574 569.0
65.277949430 519.0
65.282873286 550.0
65.287797142 553.0
65.292720998 541.0
65.297644854 569.0
65.302568710 572.0
65.307492566 513.0
65.312416422 479.0
65.317340278 511.0
65.322264134 473.0
65.327187990 450.0
65.332111846 485.0
65.337035702 496.0
65.341959558 460.0
65.346883414 494.0
65.351807270 495.0
65.356731126 447.0
65.361654982 495.0
65.366578838 442.0
65.371502694 423.0
65.376426550 421.0
65.381350406 448.0
65.386274262 432.0
65.391198118 418.0
65.396121974 409.0
65.401045830 414.0
65.405969686 388.0
65.410893542 409.0
65.415817398 378.0
65.420741254 367.0
65.425665110 401.0
65.430588966 403.0
65.435512822 387.0
65.440436678 378.0
65.445360534 350.0
65.450284390 363.0
65.455208246 373.0
65.460132102 355.0
65.465055958 370.0
65.469979814 335.0
65.474903670 352.0
65.479827526 354.0
65.484751382 379.0
65.489675238 344.0
65.494599094 317.0
65.499522950 346.0
65.504446806 342.0
65.509370662 314.0
65.514294518 316.0
65.519218374 331.0
65.524142230 294.0
65.529066086 296.0
65.533989942 300.0
65.538913798 323.0
65.543837654 269.0
65.548761510 322.0
65.553685366 290.0
65.558609223 296.0
65.563533079 267.0
65.568456935 272.0
65.573380791 282.0
65.578304647 299.0
65.583228503 296.0
65.588152359 270.0
65.593076215 276.0
65.598000071 279.0
65.602923927 283.0
65.607847783 264.0
65.612771639 284.0
65.617695495 282.0
65.622619351 280.0
65.627543207 271.0
65.632467063 282.0
65.637390919 268.0
65.642314775 239.0
65.647238631 271.0
65.652162487 279.0
65.657086343 234.0
65.662010199 278.0
65.666934055 255.0
65.671857911 287.0
65.676781767 258.0
65.681705623 264.0
65.686629479 231.0
65.691553335 264.0
65.696477191 262.0
65.701401047 268.0
65.706324903 258.0
65.711248759 264.0
65.716172615 269.0
65.721096471 225.0
65.726020327 222.0
65.730944183 221.0
65.735868039 207.0
65.740791895 241.0
65.745715751 233.0
65.750639607 218.0
65.755563463 261.0
65.760487319 285.0
65.765411175 226.0
65.770335031 216.0
65.775258887 231.0
65.780182743 231.0
65.785106599 235.0
65.790030455 234.0
65.794954311 238.0
65.799878167 270.0
65.804802023 234.0
65.809725879 256.0
65.814649735 243.0
65.819573591 218.0
65.824497447 203.0
65.829421303 232.0
65.834345159 257.0
65.839269015 219.0
65.844192871 233.0
65.849116727 230.0
65.854040583 236.0
65.858964439 257.0
65.863888295 231.0
65.868812151 219.0
65.873736007 223.0
65.878659863 201.0
65.883583719 215.0
65.888507575 227.0
65.893431431 221.0
65.898355287 236.0
65.903279143 221.0
65.908202999 221.0
65.913126855 225.0
65.918050711 235.0
65.922974567 260.0
65.927898424 232.0
65.932822280 223.0
65.937746136 222.0
65.942669992 230.0
65.947593848 198.0
65.952517704 204.0
65.957441560 236.0
65.962365416 225.0
65.967289272 219.0
65.972213128 258.0
65.977136984 201.0
65.982060840 221.0
65.986984696 229.0
65.991908552 230.0
65.996832408 200.0
66.001756264 229.0
66.006680120 237.0
66.011603976 221.0
66.016527832 265.0
66.021451688 232.0
66.026375544 275.0
66.031299400 228.0
66.036223256 219.0
66.041147112 193.0
66.046070968 224.0
66.050994824 226.0
66.055918680 218.0
66.060842536 284.0
66.065766392 263.0
66.070690248 226.0
66.075614104 235.0
66.080537960 228.0
66.085461816 225.0
66.090385672 271.0
66.095309528 258.0
66.100233384 242.0
66.105157240 231.0
66.110081096 256.0
66.115004952 217.0
66.119928808 281.0
66.124852664 260.0
66.129776520 235.0
66.134700376 237.0
66.139624232 270.0
66.144548088 232.0
66.149471944 257.0
66.154395800 227.0
66.159319656 262.0
66.164243512 257.0
66.169167368 232.0
66.174091224 264.0
66.179015080 227.0
66.183938936 210.0
66.188862792 263.0
66.193786648 221.0
66.198710504 261.0
66.203634360 257.0
66.208558216 258.0
66.213482072 259.0
66.218405928 267.0
66.223329784 272.0
66.228253640 255.0
66.233177496 281.0
66.238101352 274.0
66.243025208 237.0
66.247949064 257.0
66.252872920 292.0
66.257796776 279.0
66.262720632 281.0
66.267644488 263.0
66.272568344 279.0
66.277492200 287.0
66.282416056 264.0
66.287339912 270.0
66.292263768 298.0
66.297187625 284.0
66.302111481 228.0
66.307035337 284.0
66.311959193 296.0
66.316883049 255.0
66.321806905 282.0
66.326730761 318.0
66.331654617 233.0
66.336578473 289.0
66.341502329 277.0
66.346426185 279.0
66.351350041 302.0
66.356273897 305.0
66.361197753 282.0
66.366121609 296.0
66.371045465 258.0
66.375969321 225.0
66.380893177 258.0
66.385817033 278.0
66.390740889 298.0
66.395664745 293.0
66.400588601 315.0
66.405512457 273.0
66.410436313 313.0
66.415360169 338.0
66.420284025 292.0
66.425207881 313.0
66.430131737 303.0
66.435055593 306.0
66.439979449 308.0
66.444903305 300.0
66.449827161 286.0
66.454751017 316.0
66.459674873 294.0
66.464598729 310.0
66.469522585 322.0
66.474446441 310.0
66.479370297 321.0
66.484294153 324.0
66.489218009 310.0
66.494141865 304.0
66.499065721 318.0
66.503989577 308.0
66.508913433 310.0
66.513837289 314.0
66.518761145 298.0
66.523685001 335.0
66.528608857 337.0
66.533532713 331.0
66.538456569 315.0
66.543380425 300.0
66.548304281 323.0
66.553228137 324.0
66.558151993 312.0
66.563075849 313.0
66.567999705 342.0
66.572923561 291.0
66.577847417 298.0
66.582771273 320.0
66.587695129 305.0
66.592618985 309.0
66.597542841 347.0
66.602466697 330.0
66.607390553 361.0
66.612314409 337.0
66.617238265 346.0
66.622162121 350.0
66.627085977 331.0
66.632009833 356.0
66.636933689 341.0
66.641857545 363.0
66.646781401 370.0
66.651705257 336.0
66.656629113 351.0
66.661552969 346.0
66.666476826 336.0
66.671400682 356.0
66.676324538 338.0
66.681248394 360.0
66.686172250 354.0
66.691096106 338.0
66.696019962 365.0
66.700943818 358.0
66.705867674 348.0
66.710791530 363.0
66.715715386 350.0
66.720639242 352.0
66.725563098 356.0
66.730486954 359.0
66.735410810 358.0
66.740334666 338.0
66.745258522 361.0
66.750182378 363.0
66.755106234 379.0
66.760030090 350.0
66.764953946 390.0
66.769877802 376.0
66.774801658 350.0
66.779725514 372.0
66.784649370 329.0
66.789573226 356.0
66.794497082 368.0
66.799420938 404.0
66.804344794 335.0
66.809268650 394.0
66.814192506 358.0
66.819116362 399.0
66.824040218 385.0
66.828964074 371.0
66.833887930 377.0
66.838811786 365.0
66.843735642 402.0
66.848659498 416.0
66.853583354 357.0
66.858507210 431.0
66.863431066 393.0
66.868354922 419.0
66.873278778 465.0
66.878202634 406.0
66.883126490 425.0
66.888050346 424.0
66.892974202 376.0
66.897898058 422.0
66.902821914 409.0
66.907745770 405.0
66.912669626 416.0
66.917593482 411.0
66.922517338 496.0
66.927441194 409.0
66.932365050 434.0
66.937288906 430.0
66.942212762 424.0
66.947136618 451.0
66.952060474 403.0
66.956984330 412.0
66.961908186 463.0
66.966832042 440.0
66.971755898 454.0
66.976679754 440.0
66.981603610 445.0
66.986527466 458.0
66.991451322 430.0
66.996375178 425.0
67.001299034 416.0
67.006222890 426.0
67.011146746 427.0
67.016070602 437.0
67.020994458 460.0
67.025918314 439.0
67.030842170 447.0
67.035766026 484.0
67.040689883 432.0
67.045613739 451.0
67.050537595 450.0
67.055461451 480.0
67.060385307 494.0
67.065309163 464.0
67.070233019 428.0
67.075156875 481.0
67.080080731 458.0
67.085004587 443.0
67.089928443 473.0
67.094852299 468.0
67.099776155 505.0
67.104700011 461.0
67.109623867 524.0
67.114547723 435.0
67.119471579 464.0
67.124395435 504.0
67.129319291 507.0
67.134243147 481.0
67.139167003 477.0
67.144090859 473.0
67.149014715 540.0
67.153938571 485.0
67.158862427 484.0
67.163786283 496.0
67.168710139 526.0
67.173633995 514.0
67.178557851 529.0
67.183481707 493.0
67.188405563 497.0
67.193329419 511.0
67.198253275 550.0
67.203177131 550.0
67.208100987 562.0
67.213024843 523.0
67.217948699 516.0
67.222872555 501.0
67.227796411 532.0
67.232720267 574.0
67.237644123 565.0
67.242567979 554.0
67.247491835 545.0
67.252415691 543.0
67.257339547 541.0
67.262263403 545.0
67.267187259 535.0
67.272111115 559.0
67.277034971 537.0
67.281958827 550.0
67.286882683 562.0
67.291806539 555.0
67.296730395 569.0
67.301654251 547.0
67.306578107 575.0
67.311501963 569.0
67.316425819 613.0
67.321349675 591.0
67.326273531 622.0
67.331197387 611.0
67.336121243 578.0
67.341045099 581.0
67.345968955 652.0
67.350892811 636.0
67.355816667 621.0
67.360740523 651.0
67.365664379 614.0
67.370588235 600.0
67.375512091 645.0
67.380435947 647.0
67.385359803 631.0
67.390283659 689.0
67.395207515 625.0
67.400131371 666.0
67.405055227 612.0
67.409979084 665.0
67.414902940 623.0
67.419826796 616.0
67.424750652 671.0
67.429674508 709.0
67.434598364 742.0
67.439522220 693.0
67.444446076 706.0
67.449369932 674.0
67.454293788 706.0
67.459217644 665.0
67.464141500 688.0
67.469065356 714.0
67.473989212 696.0
67.478913068 692.0
67.483836924 745.0
67.488760780 776.0
67.493684636 727.0
67.498608492 753.0
67.503532348 738.0
67.508456204 753.0
67.513380060 763.0
67.518303916 765.0
67.523227772 756.0
67.528151628 813.0
67.533075484 826.0
67.537999340 788.0
67.542923196 804.0
67.547847052 811.0
67.552770908 802.0
67.557694764 843.0
67.562618620 816.0
67.567542476 841.0
67.572466332 901.0
67.577390188 895.0
67.582314044 897.0
67.587237900 826.0
67.592161756 887.0
67.597085612 903.0
67.602009468 856.0
67.606933324 905.0
67.611857180 883.0
67.616781036 922.0
67.621704892 994.0
67.626628748 976.0
67.631552604 991.0
67.636476460 1006.0
67.641400316 1014.0
67.646324172 925.0
67.651248028 1013.0
67.656171884 1053.0
67.661095740 1070.0
67.666019596 1039.0
67.670943452 1045.0
67.675867308 1039.0
67.680791164 1171.0
67.685715020 1129.0
67.690638876 1143.0
67.695562732 1211.0
67.700486588 1226.0
67.705410444 1309.0
67.710334300 1273.0
67.715258156 1318.0
67.720182012 1284.0
67.725105868 1312.0
67.730029724 1519.0
67.734953580 1504.0
67.739877436 1510.0
67.744801292 1637.0
67.749725148 1740.0
67.754649004 1745.0
67.759572860 1831.0
67.764496716 1948.0
67.769420572 2065.0
67.774344428 2207.0
67.779268285 2240.0
67.784192141 2359.0
67.789115997 2477.0
67.794039853 2534.0
67.798963709 2687.0
67.803887565 2810.0
67.808811421 2845.0
67.813735277 2895.0
67.818659133 2957.0
67.823582989 3145.0
67.828506845 3232.0
67.833430701 3263.0
67.838354557 3334.0
67.843278413 3218.0
67.848202269 3409.0
67.853126125 3445.0
67.858049981 3335.0
67.862973837 3391.0
67.867897693 3369.0
67.872821549 3299.0
67.877745405 3477.0
67.882669261 3307.0
67.887593117 3360.0
67.892516973 3368.0
67.897440829 3314.0
67.902364685 3234.0
67.907288541 3179.0
67.912212397 3113.0
67.917136253 3222.0
67.922060109 3154.0
67.926983965 3283.0
67.931907821 3188.0
67.936831677 3334.0
67.941755533 3416.0
67.946679389 3512.0
67.951603245 3473.0
67.956527101 3642.0
67.961450957 3523.0
67.966374813 3945.0
67.971298669 3845.0
67.976222525 4065.0
67.981146381 4032.0
67.986070237 4277.0
67.990994093 4470.0
67.995917949 4668.0
68.000841805 4933.0
68.005765661 5264.0
68.010689517 5425.0
68.015613373 5778.0
68.020537229 6028.0
68.025461085 6511.0
68.030384941 6900.0
68.035308797 7235.0
68.040232653 8093.0
68.045156509 8180.0
68.050080365 9345.0
68.055004221 9444.0
68.059928077 11048.0
68.064851933 11137.0
68.069775789 13418.0
68.074699645 13787.0
68.079623501 16517.0
68.084547357 17435.0
68.089471213 20897.0
68.094395069 22495.0
68.099318925 27599.0
68.104242781 30642.0
68.109166637 39037.0
68.114090493 44678.0
68.119014349 62009.0
68.123938205 72869.0
68.128862061 113332.0
68.133785917 134481.0
68.138709773 200920.0
68.143633629 220432.0
68.148557486 272392.0
68.153481342 281024.0
68.158405198 306865.0
68.163329054 310258.0
68.168252910 319401.0
68.173176766 317366.0
68.178100622 306814.0
68.183024478 296278.0
68.187948334 252691.0
68.192872190 231091.0
68.197796046 162909.0
68.202719902 144689.0
68.207643758 98029.0
68.212567614 88278.0
68.217491470 62137.0
68.222415326 57095.0
68.227339182 40913.0
68.232263038 38992.0
68.237186894 29605.0
68.242110750 28450.0
68.247034606 22929.0
68.251958462 22030.0
68.256882318 19161.0
68.261806174 18971.0
68.266730030 17583.0
68.271653886 17653.0
68.276577742 17647.0
68.281501598 17506.0
68.286425454 19084.0
68.291349310 20372.0
68.296273166 22805.0
68.301197022 25767.0
68.306120878 30211.0
68.311044734 36244.0
68.315968590 44946.0
68.320892446 57997.0
68.325816302 74483.0
68.330740158 93340.0
68.335664014 111381.0
68.340587870 127182.0
68.345511726 139615.0
68.350435582 149361.0
68.355359438 153801.0
68.360283294 156454.0
68.365207150 156226.0
68.370131006 151240.0
68.375054862 142722.0
68.379978718 129701.0
68.384902574 113012.0
68.389826430 94278.0
68.394750286 75913.0
68.399674142 60345.0
68.404597998 47790.0
68.409521854 38292.0
68.414445710 30582.0
68.419369566 25189.0
68.424293422 21008.0
68.429217278 17882.0
68.434141134 15062.0
68.439064990 13377.0
68.443988846 11547.0
68.448912702 10239.0
68.453836558 9406.0
68.458760414 8602.0
68.463684270 7828.0
68.468608126 7120.0
68.473531982 6580.0
68.478455838 6200.0
68.483379694 5761.0
68.488303550 5521.0
68.493227406 5204.0
68.498151262 4950.0
68.503075118 4648.0
68.507998974 4555.0
68.512922830 4253.0
68.517846687 4182.0
68.522770543 3904.0
68.527694399 3736.0
68.532618255 3656.0
68.537542111 3470.0
68.542465967 3320.0
68.547389823 3273.0
68.552313679 3174.0
68.557237535 3102.0
68.562161391 3018.0
68.567085247 2931.0
68.572009103 2783.0
68.576932959 2728.0
68.581856815 2674.0
68.586780671 2501.0
68.591704527 2532.0
68.596628383 2415.0
68.601552239 2494.0
68.606476095 2356.0
68.611399951 2343.0
68.616323807 2072.0
68.621247663 2163.0
68.626171519 2079.0
68.631095375 2070.0
68.636019231 1948.0
68.640943087 1970.0
68.645866943 1945.0
68.650790799 1851.0
68.655714655 1885.0
68.660638511 1823.0
68.665562367 1811.0
68.670486223 1716.0
68.675410079 1724.0
68.680333935 1680.0
68.685257791 1623.0
68.690181647 1601.0
68.695105503 1555.0
68.700029359 1572.0
68.704953215 1445.0
68.709877071 1437.0
68.714800927 1436.0
68.719724783 1502.0
68.724648639 1457.0
68.729572495 1493.0
68.734496351 1429.0
68.739420207 1380.0
68.744344063 1355.0
68.749267919 1354.0
68.754191775 1265.0
68.759115631 1308.0
68.764039487 1222.0
68.768963343 1261.0
68.773887199 1278.0
68.778811055 1199.0
68.783734911 1185.0
68.788658767 1158.0
68.793582623 1171.0
68.798506479 1121.0
68.803430335 1142.0
68.808354191 1076.0
68.813278047 1044.0
68.818201903 1057.0
68.823125759 1047.0
68.828049615 1051.0
68.832973471 1043.0
68.837897327 1006.0
68.842821183 1015.0
68.847745039 953.0
68.852668895 983.0
68.857592751 930.0
68.862516607 972.0
68.867440463 909.0
68.872364319 919.0
68.877288175 952.0
68.882212031 838.0
68.887135887 871.0
68.892059744 818.0
68.896983600 850.0
68.901907456 843.0
68.906831312 838.0
68.911755168 822.0
68.916679024 804.0
68.921602880 827.0
68.926526736 853.0
68.931450592 765.0
68.936374448 854.0
68.941298304 807.0
68.946222160 767.0
68.951146016 779.0
68.956069872 767.0
68.960993728 762.0
68.965917584 741.0
68.970841440 748.0
68.975765296 713.0
68.980689152 747.0
68.985613008 720.0
68.990536864 744.0
68.995460720 735.0
69.000384576 760.0
69.005308432 772.0
69.010232288 652.0
69.015156144 718.0
69.020080000 700.0
69.025003856 681.0
69.029927712 748.0
69.034851568 646.0
69.039775424 670.0
69.044699280 690.0
69.049623136 632.0
69.054546992 674.0
69.059470848 661.0
69.064394704 633.0
69.069318560 621.0
69.074242416 622.0
69.079166272 618.0
69.084090128 597.0
69.089013984 634.0
69.093937840 565.0
69.098861696 565.0
69.103785552 624.0
69.108709408 600.0
69.113633264 590.0
69.118557120 581.0
69.123480976 600.0
69.128404832 590.0
69.133328688 646.0
69.138252544 623.0
69.143176400 575.0
69.148100256 540.0
69.153024112 568.0
69.157947968 521.0
69.162871824 560.0
69.167795680 535.0
69.172719536 547.0
69.177643392 498.0
69.182567248 539.0
69.187491104 534.0
69.192414960 543.0
69.197338816 542.0
69.202262672 548.0
69.207186528 556.0
69.212110384 505.0
69.217034240 535.0
69.221958096 523.0
69.226881952 505.0
69.231805808 485.0
69.236729664 488.0
69.241653520 486.0
69.246577376 495.0
69.251501232 522.0
69.256425088 509.0
69.261348945 479.0
69.266272801 464.0
69.271196657 463.0
69.276120513 454.0
69.281044369 455.0
69.285968225 484.0
69.290892081 440.0
69.295815937 459.0
69.300739793 477.0
69.305663649 458.0
69.310587505 430.0
69.315511361 434.0
69.320435217 449.0
69.325359073 412.0
69.330282929 416.0
69.335206785 426.0
69.340130641 431.0
69.345054497 433.0
69.349978353 417.0
69.354902209 409.0
69.359826065 383.0
69.364749921 411.0
69.369673777 413.0
69.374597633 425.0
69.379521489 429.0
69.384445345 406.0
69.389369201 420.0
69.394293057 390.0
69.399216913 392.0
69.404140769 389.0
69.409064625 371.0
69.413988481 386.0
69.418912337 369.0
69.423836193 387.0
69.428760049 373.0
69.433683905 372.0
69.438607761 381.0
69.443531617 373.0
69.448455473 392.0
69.453379329 324.0
69.458303185 382.0
69.463227041 399.0
69.468150897 332.0
69.473074753 368.0
69.477998609 320.0
69.482922465 358.0
69.487846321 367.0
69.492770177 310.0
69.497694033 375.0
69.502617889 343.0
69.507541745 346.0
69.512465601 364.0
69.517389457 326.0
69.522313313 320.0
69.527237169 302.0
69.532161025 339.0
69.537084881 349.0
69.542008737 355.0
69.546932593 304.0
69.551856449 341.0
69.556780305 303.0
69.561704161 305.0
69.566628017 337.0
69.571551873 294.0
69.576475729 347.0
69.581399585 285.0
69.586323441 295.0
69.591247297 346.0
69.596171153 268.0
69.601095009 302.0
69.606018865 310.0
69.610942721 330.0
69.615866577 300.0
69.620790433 304.0
69.625714289 311.0
69.630638146 292.0
69.635562002 278.0
69.640485858 300.0
69.645409714 283.0
69.650333570 291.0
69.655257426 258.0
69.660181282 286.0
69.665105138 284.0
69.670028994 297.0
69.674952850 282.0
69.679876706 285.0
69.684800562 292.0
69.689724418 296.0
69.694648274 306.0
69.699572130 276.0
69.704495986 299.0
69.709419842 292.0
69.714343698 268.0
69.719267554 273.0
69.724191410 311.0
69.729115266 290.0
69.734039122 275.0
69.738962978 280.0
69.743886834 268.0
69.748810690 287.0
69.753734546 272.0
69.758658402 231.0
69.763582258 268.0
69.768506114 261.0
69.773429970 280.0
69.778353826 259.0
69.783277682 263.0
69.788201538 271.0
69.793125394 223.0
69.798049250 236.0
69.802973106 276.0
69.807896962 272.0
69.812820818 215.0
69.817744674 222.0
69.822668530 228.0
69.827592386 231.0
69.832516242 260.0
69.837440098 237.0
69.842363954 224.0
69.847287810 234.0
69.852211666 268.0
69.857135522 225.0
69.862059378 233.0
69.866983234 236.0
69.871907090 272.0
69.876830946 228.0
69.881754802 235.0
69.886678658 237.0
69.891602514 230.0
69.896526370 233.0
69.901450226 237.0
69.906374082 262.0
69.911297938 201.0
69.916221794 278.0
69.921145650 216.0
69.926069506 202.0
69.930993362 202.0
69.935917218 232.0
69.940841074 219.0
69.945764930 215.0
69.950688786 261.0
69.955612642 226.0
69.960536498 242.0
69.965460354 222.0
69.970384210 217.0
69.975308066 235.0
69.980231922 233.0
69.985155778 225.0
69.990079634 193.0
69.995003490 233.0
69.999927347 231.0
70.004851203 214.0
70.009775059 210.0
70.014698915 211.0
70.019622771 221.0
70.024546627 202.0
70.029470483 236.0
70.034394339 213.0
70.039318195 213.0
70.044242051 218.0
70.049165907 211.0
70.054089763 228.0
70.059013619 212.0
70.063937475 238.0
70.068861331 235.0
70.073785187 224.0
70.078709043 212.0
70.083632899 214.0
70.088556755 192.0
70.093480611 238.0
70.098404467 187.0
70.103328323 225.0
70.108252179 188.0
70.113176035 191.0
70.118099891 193.0
70.123023747 203.0
70.127947603 214.0
70.132871459 200.0
70.137795315 201.0
70.142719171 200.0
70.147643027 215.0
70.152566883 214.0
70.157490739 188.0
70.162414595 192.0
70.167338451 197.0
70.172262307 222.0
70.177186163 201.0
70.182110019 195.0
70.187033875 193.0
70.191957731 195.0
70.196881587 192.0
70.201805443 211.0
70.206729299 200.0
70.211653155 200.0
70.216577011 224.0
70.221500867 176.0
70.226424723 200.0
70.231348579 202.0
70.236272435 204.0
70.241196291 210.0
70.246120147 219.0
70.251044003 210.0
70.255967859 231.0
70.260891715 204.0
70.265815571 197.0
70.270739427 195.0
70.275663283 187.0
70.280587139 194.0
70.285510995 191.0
70.290434851 200.0
70.295358707 220.0
70.300282563 213.0
70.305206419 216.0
70.310130275 186.0
70.315054131 188.0
70.319977987 193.0
70.324901843 216.0
70.329825699 162.0
70.334749555 219.0
70.339673411 199.0
70.344597267 176.0
70.349521123 200.0
70.354444979 172.0
70.359368835 174.0
70.364292691 212.0
70.369216548 186.0
70.374140404 162.0
70.379064260 178.0
70.383988116 215.0
70.388911972 187.0
70.393835828 185.0
70.398759684 207.0
70.403683540 211.0
70.408607396 174.0
70.413531252 189.0
70.418455108 196.0
70.423378964 192.0
70.428302820 214.0
70.433226676 207.0
70.438150532 167.0
70.443074388 218.0
70.447998244 180.0
70.452922100 177.0
70.457845956 191.0
70.462769812 180.0
70.467693668 186.0
70.472617524 187.0
70.477541380 181.0
70.482465236 183.0
70.487389092 196.0
70.492312948 173.0
70.497236804 215.0
70.502160660 202.0
70.507084516 190.0
70.512008372 174.0
70.516932228 213.0
70.521856084 194.0
70.526779940 174.0
70.531703796 186.0
70.536627652 199.0
70.541551508 189.0
70.546475364 168.0
70.551399220 190.0
70.556323076 192.0
70.561246932 163.0
70.566170788 182.0
70.571094644 188.0
70.576018500 179.0
70.580942356 207.0
70.585866212 150.0
70.590790068 180.0
70.595713924 186.0
70.600637780 197.0
70.605561636 178.0
70.610485492 182.0
70.615409348 170.0
70.620333204 192.0
70.625257060 203.0
70.630180916 193.0
70.635104772 183.0
70.640028628 166.0
70.644952484 173.0
70.649876340 154.0
70.654800196 184.0
70.659724052 196.0
70.664647908 157.0
70.669571764 182.0
70.674495620 180.0
70.679419476 182.0
70.684343332 191.0
70.689267188 209.0
70.694191044 207.0
70.699114900 188.0
70.704038756 184.0
70.708962612 168.0
70.713886468 200.0
70.718810324 216.0
70.723734180 156.0
70.728658036 175.0
70.733581892 162.0
70.738505748 203.0
70.743429605 178.0
70.748353461 183.0
70.753277317 177.0
70.758201173 163.0
70.763125029 188.0
70.768048885 151.0
70.772972741 170.0
70.777896597 165.0
70.782820453 147.0
70.787744309 171.0
70.792668165 190.0
70.797592021 207.0
70.802515877 198.0
70.807439733 191.0
70.812363589 175.0
70.817287445 170.0
70.822211301 181.0
70.827135157 174.0
70.832059013 193.0
70.836982869 180.0
70.841906725 200.0
70.846830581 187.0
70.851754437 167.0
70.856678293 160.0
70.861602149 192.0
70.866526005 175.0
70.871449861 172.0
70.876373717 181.0
70.881297573 180.0
70.886221429 180.0
70.891145285 189.0
70.896069141 168.0
70.900992997 189.0
70.905916853 194.0
70.910840709 155.0
70.915764565 166.0
70.920688421 172.0
70.925612277 183.0
70.930536133 182.0
70.935459989 168.0
70.940383845 173.0
70.945307701 180.0
70.950231557 168.0
70.955155413 165.0
70.960079269 176.0
70.965003125 168.0
70.969926981 166.0
70.974850837 170.0
70.979774693 155.0
70.984698549 155.0
70.989622405 165.0
70.994546261 170.0
70.999470117 182.0
71.004393973 187.0
71.009317829 175.0
71.014241685 169.0
71.019165541 153.0
71.024089397 171.0
71.029013253 156.0
71.033937109 173.0
71.038860965 178.0
71.043784821 152.0
71.048708677 182.0
71.053632533 176.0
71.058556389 187.0
71.063480245 162.0
71.068404101 172.0
71.073327957 167.0
71.078251813 164.0
71.083175669 161.0
71.088099525 160.0
71.093023381 179.0
71.097947237 158.0
71.102871093 170.0
71.107794949 156.0
71.112718806 170.0
71.117642662 184.0
71.122566518 171.0
71.127490374 174.0
71.132414230 176.0
71.137338086 147.0
71.142261942 155.0
71.147185798 177.0
71.152109654 158.0
71.157033510 168.0
71.161957366 160.0
71.166881222 171.0
71.171805078 151.0
71.176728934 186.0
71.181652790 178.0
71.186576646 178.0
71.191500502 164.0
71.196424358 156.0
71.201348214 169.0
71.206272070 154.0
71.211195926 175.0
71.216119782 177.0
71.221043638 195.0
71.225967494 147.0
71.230891350 168.0
71.235815206 141.0
71.240739062 171.0
71.245662918 163.0
71.250586774 172.0
71.255510630 174.0
71.260434486 165.0
71.265358342 179.0
71.270282198 173.0
71.275206054 176.0
71.280129910 185.0
71.285053766 169.0
71.289977622 156.0
71.294901478 180.0
71.299825334 157.0
71.304749190 163.0
71.309673046 165.0
71.314596902 166.0
71.319520758 150.0
71.324444614 157.0
71.329368470 164.0
71.334292326 169.0
71.339216182 184.0
71.344140038 180.0
71.349063894 167.0
71.353987750 164.0
71.358911606 201.0
71.363835462 160.0
71.368759318 178.0
71.373683174 199.0
71.378607030 146.0
71.383530886 196.0
71.388454742 159.0
71.393378598 161.0
71.398302454 143.0
71.403226310 137.0
71.408150166 188.0
71.413074022 175.0
71.417997878 185.0
71.422921734 180.0
71.427845590 157.0
71.432769446 174.0
71.437693302 161.0
71.442617158 160.0
71.447541014 177.0
71.452464870 151.0
71.457388726 184.0
71.462312582 160.0
71.467236438 177.0
71.472160294 146.0
71.477084150 205.0
71.482008007 162.0
71.486931863 172.0
71.491855719 148.0
71.496779575 149.0
71.501703431 154.0
71.506627287 186.0
71.511551143 181.0
71.516474999 168.0
71.521398855 163.0
71.526322711 150.0
71.531246567 173.0
71.536170423 181.0
71.541094279 174.0
71.546018135 167.0
71.550941991 170.0
71.555865847 153.0
71.560789703 181.0
71.565713559 160.0
71.570637415 179.0
71.575561271 157.0
71.580485127 158.0
71.585408983 161.0
71.590332839 143.0
71.595256695 179.0
71.600180551 165.0
71.605104407 167.0
71.610028263 154.0
71.614952119 175.0
71.619875975 162.0
71.624799831 147.0
71.629723687 189.0
71.634647543 170.0
71.639571399 152.0
71.644495255 153.0
71.649419111 149.0
71.654342967 173.0
71.659266823 157.0
71.664190679 160.0
71.669114535 170.0
71.674038391 173.0
71.678962247 153.0
71.683886103 165.0
71.688809959 150.0
71.693733815 171.0
71.698657671 173.0
71.703581527 175.0
71.708505383 160.0
71.713429239 176.0
71.718353095 136.0
71.723276951 159.0
71.728200807 157.0
71.733124663 150.0
71.738048519 147.0
71.742972375 180.0
71.747896231 164.0
71.752820087 172.0
71.757743943 181.0
71.762667799 181.0
71.767591655 153.0
71.772515511 161.0
71.777439367 188.0
71.782363223 148.0
71.787287079 141.0
71.792210935 180.0
71.797134791 151.0
71.802058647 173.0
71.806982503 167.0
71.811906359 139.0
71.816830215 163.0
71.821754071 162.0
71.826677927 164.0
71.831601783 155.0
71.836525639 167.0
71.841449495 142.0
71.846373351 165.0
71.851297208 171.0
71.856221064 189.0
71.861144920 158.0
71.866068776 170.0
71.870992632 169.0
71.875916488 162.0
71.880840344 159.0
71.885764200 161.0
71.890688056 148.0
71.895611912 185.0
71.900535768 185.0
71.905459624 167.0
71.910383480 135.0
71.915307336 139.0
71.920231192 152.0
71.925155048 155.0
71.930078904 152.0
71.935002760 157.0
71.939926616 136.0
71.944850472 153.0
71.949774328 142.0
71.954698184 150.0
71.959622040 151.0
71.964545896 153.0
71.969469752 145.0
71.974393608 178.0
71.979317464 151.0
71.984241320 150.0
71.989165176 141.0
71.994089032 152.0
71.999012888 163.0
72.003936744 172.0
72.008860600 159.0
72.013784456 160.0
72.018708312 165.0
72.023632168 140.0
72.028556024 167.0
72.033479880 155.0
72.038403736 144.0
72.043327592 159.0
72.048251448 152.0
72.053175304 154.0
72.058099160 158.0
72.063023016 159.0
72.067946872 150.0
72.072870728 142.0
72.077794584 151.0
72.082718440 167.0
72.087642296 158.0
72.092566152 159.0
72.097490008 131.0
72.102413864 161.0
72.107337720 145.0
72.112261576 172.0
72.117185432 157.0
72.122109288 161.0
72.127033144 152.0
72.131957000 153.0
72.136880856 164.0
72.141804712 133.0
72.146728568 156.0
72.151652424 174.0
72.156576280 171.0
72.161500136 164.0
72.166423992 153.0
72.171347848 134.0
72.176271704 185.0
72.181195560 144.0
72.186119416 149.0
72.191043272 178.0
72.195967128 154.0
72.200890984 138.0
72.205814840 145.0
72.210738696 141.0
72.215662552 157.0
72.220586409 162.0
72.225510265 152.0
72.230434121 157.0
72.235357977 140.0
72.240281833 155.0
72.245205689 151.0
72.250129545 115.0
72.255053401 162.0
72.259977257 166.0
72.264901113 149.0
72.269824969 146.0
72.274748825 178.0
72.279672681 141.0
72.284596537 124.0
72.289520393 135.0
72.294444249 151.0
72.299368105 168.0
72.304291961 164.0
72.309215817 131.0
72.314139673 154.0
72.319063529 134.0
72.323987385 148.0
72.328911241 179.0
72.333835097 137.0
72.338758953 149.0
72.343682809 144.0
72.348606665 156.0
72.353530521 138.0
72.358454377 148.0
72.363378233 145.0
72.368302089 147.0
72.373225945 133.0
72.378149801 130.0
72.383073657 144.0
72.387997513 152.0
72.392921369 140.0
72.397845225 140.0
72.402769081 165.0
72.407692937 180.0
72.412616793 155.0
72.417540649 152.0
72.422464505 149.0
72.427388361 176.0
72.432312217 152.0
72.437236073 151.0
72.442159929 137.0
72.447083785 160.0
72.452007641 139.0
72.456931497 156.0
72.461855353 152.0
72.466779209 154.0
72.471703065 166.0
72.476626921 162.0
72.481550777 152.0
72.486474633 156.0
72.491398489 154.0
72.496322345 163.0
72.501246201 156.0
72.506170057 170.0
72.511093913 143.0
72.516017769 160.0
72.520941625 143.0
72.525865481 140.0
72.530789337 140.0
72.535713193 134.0
72.540637049 144.0
72.545560905 165.0
72.550484761 156.0
72.555408617 174.0
72.560332473 148.0
72.565256329 165.0
72.570180185 135.0
72.575104041 151.0
72.580027897 143.0
72.584951753 149.0
72.589875609 151.0
72.594799466 171.0
72.599723322 125.0
72.604647178 143.0
72.609571034 178.0
72.614494890 138.0
72.619418746 147.0
72.624342602 150.0
72.629266458 138.0
72.634190314 164.0
72.639114170 149.0
72.644038026 188.0
72.648961882 162.0
72.653885738 150.0
72.658809594 150.0
72.663733450 178.0
72.668657306 187.0
72.673581162 155.0
72.678505018 157.0
72.683428874 172.0
72.688352730 147.0
72.693276586 133.0
72.698200442 153.0
72.703124298 144.0
72.708048154 158.0
72.712972010 147.0
72.717895866 169.0
72.722819722 133.0
72.727743578 124.0
72.732667434 146.0
72.737591290 159.0
72.742515146 144.0
72.747439002 136.0
72.752362858 143.0
72.757286714 173.0
72.762210570 149.0
72.767134426 151.0
72.772058282 128.0
72.776982138 152.0
72.781905994 137.0
72.786829850 151.0
72.791753706 138.0
72.796677562 143.0
72.801601418 130.0
72.806525274 165.0
72.811449130 139.0
72.816372986 164.0
72.821296842 169.0
72.826220698 139.0
72.831144554 170.0
72.836068410 139.0
72.840992266 139.0
72.845916122 170.0
72.850839978 153.0
72.855763834 163.0
72.860687690 149.0
72.865611546 156.0
72.870535402 133.0
72.875459258 150.0
72.880383114 128.0
72.885306970 146.0
72.890230826 169.0
72.895154682 164.0
72.900078538 149.0
72.905002394 140.0
72.909926250 134.0
72.914850106 152.0
72.919773962 137.0
72.924697818 143.0
72.929621674 162.0
72.934545530 148.0
72.939469386 144.0
72.944393242 154.0
72.949317098 178.0
72.954240954 160.0
72.959164810 148.0
72.964088667 121.0
72.969012523 150.0
72.973936379 137.0
72.978860235 157.0
72.983784091 141.0
72.988707947 127.0
72.993631803 169.0
72.998555659 154.0
73.003479515 142.0
73.008403371 142.0
73.013327227 148.0
73.018251083 141.0
73.023174939 158.0
73.028098795 138.0
73.033022651 150.0
73.037946507 151.0
73.042870363 155.0
73.047794219 130.0
73.052718075 141.0
73.057641931 146.0
73.062565787 166.0
73.067489643 147.0
73.072413499 142.0
73.077337355 141.0
73.082261211 131.0
73.087185067 154.0
73.092108923 154.0
73.097032779 147.0
73.101956635 141.0
73.106880491 149.0
73.111804347 157.0
73.116728203 132.0
73.121652059 155.0
73.126575915 138.0
73.131499771 159.0
73.136423627 157.0
73.141347483 144.0
73.146271339 165.0
73.151195195 148.0
73.156119051 135.0
73.161042907 134.0
73.165966763 150.0
73.170890619 130.0
73.175814475 142.0
73.180738331 133.0
73.185662187 150.0
73.190586043 127.0
73.195509899 137.0
73.200433755 122.0
73.205357611 151.0
73.210281467 140.0
73.215205323 164.0
73.220129179 135.0
73.225053035 144.0
73.229976891 130.0
73.234900747 145.0
73.239824603 167.0
73.244748459 154.0
73.249672315 157.0
73.254596171 155.0
73.259520027 158.0
73.264443883 148.0
73.269367739 120.0
73.274291595 153.0
73.279215451 170.0
73.284139307 146.0
73.289063163 146.0
73.293987019 151.0
73.298910875 144.0
73.303834731 126.0
73.308758587 133.0
73.313682443 131.0
73.318606299 121.0
73.323530155 146.0
73.328454011 173.0
73.333377868 143.0
73.338301724 128.0
73.343225580 147.0
73.348149436 158.0
73.353073292 159.0
73.357997148 148.0
73.362921004 171.0
73.367844860 139.0
73.372768716 124.0
73.377692572 148.0
73.382616428 176.0
73.387540284 152.0
73.392464140 169.0
73.397387996 133.0
73.402311852 154.0
73.407235708 157.0
73.412159564 182.0
73.417083420 150.0
73.422007276 145.0
73.426931132 167.0
73.431854988 153.0
73.436778844 130.0
73.441702700 170.0
73.446626556 141.0
73.451550412 132.0
73.456474268 153.0
73.461398124 138.0
73.466321980 139.0
73.471245836 138.0
73.476169692 136.0
73.481093548 121.0
73.486017404 152.0
73.490941260 158.0
73.495865116 168.0
73.500788972 153.0
73.505712828 157.0
73.510636684 138.0
73.515560540 164.0
73.520484396 136.0
73.525408252 141.0
73.530332108 130.0
73.535255964 156.0
73.540179820 158.0
73.545103676 146.0
73.550027532 142.0
73.554951388 142.0
73.559875244 138.0
73.564799100 150.0
73.569722956 160.0
73.574646812 138.0
73.579570668 153.0
73.584494524 140.0
73.589418380 147.0
73.594342236 131.0
73.599266092 135.0
73.604189948 147.0
73.609113804 142.0
73.614037660 157.0
73.618961516 128.0
73.623885372 157.0
73.628809228 117.0
73.633733084 174.0
73.638656940 141.0
73.643580796 139.0
73.648504652 152.0
73.653428508 137.0
73.658352364 133.0
73.663276220 156.0
73.668200076 158.0
73.673123932 139.0
73.678047788 156.0
73.682971644 129.0
73.687895500 154.0
73.692819356 129.0
73.697743212 146.0
73.702667069 131.0
73.707590925 146.0
73.712514781 132.0
73.717438637 142.0
73.722362493 159.0
73.727286349 152.0
73.732210205 149.0
73.737134061 148.0
73.742057917 146.0
73.746981773 140.0
73.751905629 151.0
73.756829485 130.0
73.761753341 158.0
73.766677197 152.0
73.771601053 160.0
73.776524909 149.0
73.781448765 155.0
73.786372621 161.0
73.791296477 154.0
73.796220333 139.0
73.801144189 149.0
73.806068045 152.0
73.810991901 168.0
73.815915757 146.0
73.820839613 152.0
73.825763469 159.0
73.830687325 104.0
73.835611181 149.0
73.840535037 140.0
73.845458893 143.0
73.850382749 153.0
73.855306605 131.0
73.860230461 135.0
73.865154317 156.0
73.870078173 144.0
73.875002029 151.0
73.879925885 152.0
73.884849741 146.0
73.889773597 138.0
73.894697453 146.0
73.899621309 136.0
73.904545165 130.0
73.909469021 147.0
73.914392877 151.0
73.919316733 137.0
73.924240589 134.0
73.929164445 154.0
73.934088301 144.0
73.939012157 153.0
73.943936013 149.0
73.948859869 156.0
73.953783725 147.0
73.958707581 148.0
73.963631437 157.0
73.968555293 138.0
73.973479149 160.0
73.978403005 157.0
73.983326861 163.0
73.988250717 159.0
73.993174573 137.0
73.998098429 158.0
74.003022285 153.0
74.007946141 132.0
74.012869997 160.0
74.017793853 151.0
74.022717709 148.0
74.027641565 153.0
74.032565421 144.0
74.037489277 147.0
74.042413133 139.0
74.047336989 136.0
74.052260845 133.0
74.057184701 132.0
74.062108557 141.0
74.067032413 146.0
74.071956270 151.0
74.076880126 143.0
74.081803982 142.0
74.086727838 173.0
74.091651694 146.0
74.096575550 163.0
74.101499406 153.0
74.106423262 142.0
74.111347118 144.0
74.116270974 144.0
74.121194830 145.0
74.126118686 156.0
74.131042542 143.0
74.135966398 141.0
74.140890254 151.0
74.145814110 144.0
74.150737966 153.0
74.155661822 149.0
74.160585678 148.0
74.165509534 141.0
74.170433390 163.0
74.175357246 148.0
74.180281102 158.0
74.185204958 147.0
74.190128814 135.0
74.195052670 127.0
74.199976526 156.0
74.204900382 144.0
74.209824238 154.0
74.214748094 140.0
74.219671950 141.0
74.224595806 144.0
74.229519662 153.0
74.234443518 132.0
74.239367374 168.0
74.244291230 145.0
74.249215086 158.0
74.254138942 150.0
74.259062798 152.0
74.263986654 178.0
74.268910510 163.0
74.273834366 144.0
74.278758222 128.0
74.283682078 153.0
74.288605934 138.0
74.293529790 152.0
74.298453646 135.0
74.303377502 160.0
74.308301358 147.0
74.313225214 129.0
74.318149070 144.0
74.323072926 165.0
74.327996782 135.0
74.332920638 138.0
74.337844494 135.0
74.342768350 129.0
74.347692206 164.0
74.352616062 116.0
74.357539918 142.0
74.362463774 150.0
74.367387630 148.0
74.372311486 132.0
74.377235342 150.0
74.382159198 148.0
74.387083054 157.0
74.392006910 126.0
74.396930766 133.0
74.401854622 148.0
74.406778478 155.0
74.411702334 149.0
74.416626190 144.0
74.421550046 142.0
74.426473902 170.0
74.431397758 148.0
74.436321614 141.0
74.441245470 139.0
74.446169327 152.0
74.451093183 130.0
74.456017039 164.0
74.460940895 127.0
74.465864751 144.0
74.470788607 137.0
74.475712463 139.0
74.480636319 161.0
74.485560175 149.0
74.490484031 147.0
74.495407887 159.0
74.500331743 151.0
74.505255599 136.0
74.510179455 140.0
74.515103311 147.0
74.520027167 152.0
74.524951023 151.0
74.529874879 135.0
74.534798735 144.0
74.539722591 146.0
74.544646447 172.0
74.549570303 150.0
74.554494159 141.0
74.559418015 134.0
74.564341871 134.0
74.569265727 137.0
74.574189583 159.0
74.579113439 173.0
74.584037295 143.0
74.588961151 148.0
74.593885007 148.0
74.598808863 149.0
74.603732719 124.0
74.608656575 154.0
74.613580431 164.0
74.618504287 147.0
74.623428143 129.0
74.628351999 152.0
74.633275855 137.0
74.638199711 134.0
74.643123567 154.0
74.648047423 152.0
74.652971279 149.0
74.657895135 112.0
74.662818991 145.0
74.667742847 154.0
74.672666703 143.0
74.677590559 154.0
74.682514415 160.0
74.687438271 143.0
74.692362127 147.0
74.697285983 154.0
74.702209839 149.0
74.707133695 152.0
74.712057551 149.0
74.716981407 167.0
74.721905263 155.0
74.726829119 164.0
74.731752975 124.0
74.736676831 157.0
74.741600687 144.0
74.746524543 158.0
74.751448399 150.0
74.756372255 147.0
74.761296111 153.0
74.766219967 149.0
74.771143823 137.0
74.776067679 133.0
74.780991535 140.0
74.785915391 149.0
74.790839247 176.0
74.795763103 143.0
74.800686959 162.0
74.805610815 158.0
74.810534671 159.0
74.815458528 136.0
74.820382384 155.0
74.825306240 159.0
74.830230096 171.0
74.835153952 155.0
74.840077808 152.0
74.845001664 162.0
74.849925520 144.0
74.854849376 168.0
74.859773232 146.0
74.864697088 167.0
74.869620944 159.0
74.874544800 128.0
74.879468656 155.0
74.884392512 172.0
74.889316368 144.0
74.894240224 158.0
74.899164080 141.0
74.904087936 142.0
74.909011792 143.0
74.913935648 128.0
74.918859504 139.0
74.923783360 162.0
74.928707216 143.0
74.933631072 147.0
74.938554928 171.0
74.943478784 160.0
74.948402640 154.0
74.953326496 152.0
74.958250352 142.0
74.963174208 149.0
74.968098064 135.0
74.973021920 154.0
74.977945776 159.0
74.982869632 164.0
74.987793488 149.0
74.992717344 124.0
74.997641200 148.0
