30.002461930 101.0
30.007385786 101.0
30.012309642 117.0
30.017233498 108.0
30.022157354 113.0
30.027081210 110.0
30.032005066 115.0
30.036928922 120.0
30.041852778 100.0
30.046776634 103.0
30.051700490 122.0
30.056624346 107.0
30.061548202 121.0
30.066472058 117.0
30.071395914 113.0
30.076319770 123.0
30.081243626 104.0
30.086167482 102.0
30.091091338 127.0
30.096015194 102.0
30.100939050 100.0
30.105862906 106.0
30.110786762 111.0
30.115710618 107.0
30.120634474 112.0
30.125558330 94.0
30.130482186 119.0
30.135406042 108.0
30.140329898 113.0
30.145253754 97.0
30.150177610 112.0
30.155101466 118.0
30.160025322 119.0
30.164949178 106.0
30.169873034 114.0
30.174796890 124.0
30.179720746 97.0
30.184644602 124.0
30.189568458 107.0
30.194492314 96.0
30.199416170 112.0
30.204340026 116.0
30.209263882 98.0
30.214187738 127.0
30.219111594 102.0
30.224035450 111.0
30.228959306 105.0
30.233883162 108.0
30.238807018 110.0
30.243730874 103.0
30.248654730 94.0
30.253578587 107.0
30.258502443 116.0
30.263426299 91.0
30.268350155 101.0
30.273274011 110.0
30.278197867 116.0
30.283121723 118.0
30.288045579 112.0
30.292969435 116.0
30.297893291 114.0
30.302817147 111.0
30.307741003 102.0
30.312664859 100.0
30.317588715 103.0
30.322512571 107.0
30.327436427 122.0
30.332360283 105.0
30.337284139 113.0
30.342207995 114.0
30.347131851 116.0
30.352055707 117.0
30.356979563 93.0
30.361903419 115.0
30.366827275 107.0
30.371751131 106.0
30.376674987 113.0
30.381598843 101.0
30.386522699 100.0
30.391446555 121.0
30.396370411 100.0
30.401294267 112.0
30.406218123 105.0
30.411141979 116.0
30.416065835 115.0
30.420989691 97.0
30.425913547 111.0
30.430837403 115.0
30.435761259 94.0
30.440685115 112.0
30.445608971 104.0
30.450532827 118.0
30.455456683 119.0
30.460380539 110.0
30.465304395 116.0
30.470228251 121.0
30.475152107 106.0
30.480075963 119.0
30.484999819 104.0
30.489923675 98.0
30.494847531 112.0
30.499771387 105.0
30.504695243 109.0
30.509619099 123.0
30.514542955 114.0
30.519466811 110.0
30.524390667 116.0
30.529314523 109.0
30.534238379 107.0
30.539162235 111.0
30.544086091 107.0
30.549009947 100.0
30.553933803 88.0
30.558857659 104.0
30.563781515 115.0
30.568705371 100.0
30.573629227 106.0
30.578553083 102.0
30.583476939 115.0
30.588400795 109.0
30.593324651 108.0
30.598248507 105.0
30.603172363 118.0
30.608096219 98.0
30.613020075 108.0
30.617943931 116.0
30.622867787 135.0
30.627791643 94.0
30.632715499 127.0
30.637639355 102.0
30.642563211 115.0
30.647487067 101.0
30.652410923 123.0
30.657334779 106.0
30.662258635 112.0
30.667182491 128.0
30.672106347 112.0
30.677030203 126.0
30.681954059 124.0
30.686877915 74.0
30.691801771 100.0
30.696725627 111.0
30.701649483 124.0
30.706573339 103.0
30.711497195 113.0
30.716421051 95.0
30.721344907 104.0
30.726268763 107.0
30.731192619 99.0
30.736116475 105.0
30.741040331 105.0
30.745964187 121.0
30.750888043 107.0
30.755811900 102.0
30.760735756 103.0
30.765659612 110.0
30.770583468 110.0
30.775507324 101.0
30.780431180 108.0
30.785355036 116.0
30.790278892 100.0
30.795202748 111.0
30.800126604 97.0
30.805050460 109.0
30.809974316 111.0
30.814898172 114.0
30.819822028 114.0
30.824745884 121.0
30.829669740 118.0
30.834593596 86.0
30.839517452 104.0
30.844441308 91.0
30.849365164 110.0
30.854289020 115.0
30.859212876 98.0
30.864136732 121.0
30.869060588 112.0
30.873984444 104.0
30.878908300 107.0
30.883832156 113.0
30.888756012 108.0
30.893679868 101.0
30.898603724 99.0
30.903527580 93.0
30.908451436 102.0
30.913375292 110.0
30.918299148 110.0
30.923223004 103.0
30.928146860 108.0
30.933070716 113.0
30.937994572 111.0
30.942918428 114.0
30.947842284 108.0
30.952766140 107.0
30.957689996 108.0
30.962613852 106.0
30.967537708 115.0
30.972461564 108.0
30.977385420 96.0
30.982309276 107.0
30.987233132 108.0
30.992156988 117.0
30.997080844 121.0
31.002004700 97.0
31.006928556 92.0
31.011852412 106.0
31.016776268 94.0
31.021700124 103.0
31.026623980 107.0
31.031547836 113.0
31.036471692 101.0
31.041395548 112.0
31.046319404 112.0
31.051243260 125.0
31.056167116 119.0
31.061090972 102.0
31.066014828 107.0
31.070938684 106.0
31.075862540 104.0
31.080786396 112.0
31.085710252 90.0
31.090634108 102.0
31.095557964 122.0
31.100481820 112.0
31.105405676 114.0
31.110329532 121.0
31.115253388 110.0
31.120177244 109.0
31.125101100 101.0
31.130024956 108.0
31.134948812 110.0
31.139872668 116.0
31.144796524 105.0
31.149720380 101.0
31.154644236 111.0
31.159568092 114.0
31.164491948 97.0
31.169415804 120.0
31.174339660 127.0
31.179263516 109.0
31.184187372 102.0
31.189111228 113.0
31.194035084 106.0
31.198958940 123.0
31.203882796 103.0
31.208806652 108.0
31.213730508 98.0
31.218654364 116.0
31.223578220 103.0
31.228502076 115.0
31.233425932 97.0
31.238349788 113.0
31.243273644 107.0
31.248197500 83.0
31.253121357 112.0
31.258045213 117.0
31.262969069 110.0
31.267892925 107.0
31.272816781 109.0
31.277740637 136.0
31.282664493 108.0
31.287588349 112.0
31.292512205 131.0
31.297436061 116.0
31.302359917 105.0
31.307283773 109.0
31.312207629 108.0
31.317131485 100.0
31.322055341 98.0
31.326979197 106.0
31.331903053 105.0
31.336826909 121.0
31.341750765 97.0
31.346674621 89.0
31.351598477 123.0
31.356522333 133.0
31.361446189 114.0
31.366370045 112.0
31.371293901 113.0
31.376217757 114.0
31.381141613 106.0
31.386065469 121.0
31.390989325 115.0
31.395913181 104.0
31.400837037 96.0
31.405760893 106.0
31.410684749 109.0
31.415608605 112.0
31.420532461 124.0
31.425456317 101.0
31.430380173 102.0
31.435304029 110.0
31.440227885 109.0
31.445151741 100.0
31.450075597 109.0
31.454999453 108.0
31.459923309 97.0
31.464847165 113.0
31.469771021 96.0
31.474694877 118.0
31.479618733 102.0
31.484542589 90.0
31.489466445 120.0
31.494390301 127.0
31.499314157 109.0
31.504238013 108.0
31.509161869 115.0
31.514085725 119.0
31.519009581 140.0
31.523933437 118.0
31.528857293 103.0
31.533781149 111.0
31.538705005 103.0
31.543628861 108.0
31.548552717 103.0
31.553476573 100.0
31.558400429 119.0
31.563324285 116.0
31.568248141 118.0
31.573171997 112.0
31.578095853 107.0
31.583019709 116.0
31.587943565 107.0
31.592867421 111.0
31.597791277 128.0
31.602715133 104.0
31.607638989 114.0
31.612562845 106.0
31.617486701 111.0
31.622410557 127.0
31.627334413 104.0
31.632258269 105.0
31.637182125 118.0
31.642105981 116.0
31.647029837 102.0
31.651953693 88.0
31.656877549 105.0
31.661801405 110.0
31.666725261 100.0
31.671649117 120.0
31.676572973 114.0
31.681496829 92.0
31.686420685 122.0
31.691344541 97.0
31.696268397 121.0
31.701192253 128.0
31.706116109 113.0
31.711039965 120.0
31.715963821 116.0
31.720887677 107.0
31.725811533 100.0
31.730735389 118.0
31.735659245 110.0
31.740583101 104.0
31.745506957 109.0
31.750430813 98.0
31.755354670 133.0
31.760278526 106.0
31.765202382 114.0
31.770126238 120.0
31.775050094 121.0
31.779973950 109.0
31.784897806 123.0
31.789821662 122.0
31.794745518 114.0
31.799669374 99.0
31.804593230 100.0
31.809517086 112.0
31.814440942 115.0
31.819364798 142.0
31.824288654 125.0
31.829212510 116.0
31.834136366 106.0
31.839060222 117.0
31.843984078 121.0
31.848907934 127.0
31.853831790 115.0
31.858755646 113.0
31.863679502 101.0
31.868603358 97.0
31.873527214 119.0
31.878451070 124.0
31.883374926 126.0
31.888298782 128.0
31.893222638 120.0
31.898146494 124.0
31.903070350 99.0
31.907994206 96.0
31.912918062 98.0
31.917841918 122.0
31.922765774 97.0
31.927689630 103.0
31.932613486 135.0
31.937537342 112.0
31.942461198 110.0
31.947385054 113.0
31.952308910 103.0
31.957232766 123.0
31.962156622 111.0
31.967080478 103.0
31.972004334 111.0
31.976928190 129.0
31.981852046 109.0
31.986775902 88.0
31.991699758 107.0
31.996623614 108.0
32.001547470 101.0
32.006471326 108.0
32.011395182 119.0
32.016319038 114.0
32.021242894 109.0
32.026166750 111.0
32.031090606 112.0
32.036014462 131.0
32.040938318 109.0
32.045862174 108.0
32.050786030 125.0
32.055709886 108.0
32.060633742 102.0
32.065557598 109.0
32.070481454 107.0
32.075405310 111.0
32.080329166 104.0
32.085253022 130.0
32.090176878 116.0
32.095100734 117.0
32.100024590 113.0
32.104948446 125.0
32.109872302 92.0
32.114796158 120.0
32.119720014 95.0
32.124643870 110.0
32.129567726 106.0
32.134491582 116.0
32.139415438 115.0
32.144339294 95.0
32.149263150 111.0
32.154187006 115.0
32.159110862 111.0
32.164034718 100.0
32.168958574 109.0
32.173882430 101.0
32.178806286 114.0
32.183730142 105.0
32.188653998 120.0
32.193577854 121.0
32.198501710 134.0
32.203425566 120.0
32.208349422 126.0
32.213273278 113.0
32.218197134 105.0
32.223120990 124.0
32.228044846 125.0
32.232968702 105.0
32.237892558 125.0
32.242816414 127.0
32.247740270 138.0
32.252664127 122.0
32.257587983 116.0
32.262511839 122.0
32.267435695 102.0
32.272359551 133.0
32.277283407 140.0
32.282207263 150.0
32.287131119 140.0
32.292054975 138.0
32.296978831 145.0
32.301902687 142.0
32.306826543 135.0
32.311750399 162.0
32.316674255 163.0
32.321598111 142.0
32.326521967 169.0
32.331445823 151.0
32.336369679 155.0
32.341293535 159.0
32.346217391 175.0
32.351141247 154.0
32.356065103 177.0
32.360988959 178.0
32.365912815 146.0
32.370836671 145.0
32.375760527 189.0
32.380684383 160.0
32.385608239 159.0
32.390532095 164.0
32.395455951 182.0
32.400379807 148.0
32.405303663 139.0
32.410227519 147.0
32.415151375 153.0
32.420075231 150.0
32.424999087 147.0
32.429922943 123.0
32.434846799 140.0
32.439770655 124.0
32.444694511 139.0
32.449618367 118.0
32.454542223 129.0
32.459466079 133.0
32.464389935 147.0
32.469313791 132.0
32.474237647 144.0
32.479161503 127.0
32.484085359 125.0
32.489009215 125.0
32.493933071 123.0
32.498856927 124.0
32.503780783 106.0
32.508704639 127.0
32.513628495 112.0
32.518552351 115.0
32.523476207 116.0
32.528400063 116.0
32.533323919 119.0
32.538247775 113.0
32.543171631 122.0
32.548095487 109.0
32.553019343 118.0
32.557943199 113.0
32.562867055 133.0
32.567790911 85.0
32.572714767 112.0
32.577638623 109.0
32.582562479 123.0
32.587486335 132.0
32.592410191 108.0
32.597334047 127.0
32.602257903 111.0
32.607181759 119.0
32.612105615 116.0
32.617029471 122.0
32.621953327 126.0
32.626877183 101.0
32.631801039 130.0
32.636724895 105.0
32.641648751 118.0
32.646572607 101.0
32.651496463 105.0
32.656420319 100.0
32.661344175 125.0
32.666268031 103.0
32.671191887 105.0
32.676115743 111.0
32.681039599 112.0
32.685963455 121.0
32.690887311 119.0
32.695811167 121.0
32.700735023 113.0
32.705658879 134.0
32.710582735 91.0
32.715506591 117.0
32.720430447 118.0
32.725354303 106.0
32.730278159 104.0
32.735202015 103.0
32.740125871 127.0
32.745049727 124.0
32.749973583 125.0
32.754897440 105.0
32.759821296 108.0
32.764745152 121.0
32.769669008 116.0
32.774592864 108.0
32.779516720 111.0
32.784440576 112.0
32.789364432 113.0
32.794288288 115.0
32.799212144 106.0
32.804136000 99.0
32.809059856 100.0
32.813983712 94.0
32.818907568 122.0
32.823831424 106.0
32.828755280 114.0
32.833679136 116.0
32.838602992 111.0
32.843526848 107.0
32.848450704 119.0
32.853374560 100.0
32.858298416 114.0
32.863222272 105.0
32.868146128 113.0
32.873069984 108.0
32.877993840 121.0
32.882917696 109.0
32.887841552 101.0
32.892765408 114.0
32.897689264 110.0
32.902613120 100.0
32.907536976 118.0
32.912460832 143.0
32.917384688 107.0
32.922308544 122.0
32.927232400 113.0
32.932156256 116.0
32.937080112 117.0
32.942003968 128.0
32.946927824 95.0
32.951851680 89.0
32.956775536 108.0
32.961699392 112.0
32.966623248 108.0
32.971547104 108.0
32.976470960 104.0
32.981394816 95.0
32.986318672 109.0
32.991242528 123.0
32.996166384 131.0
33.001090240 116.0
33.006014096 135.0
33.010937952 97.0
33.015861808 101.0
33.020785664 107.0
33.025709520 102.0
33.030633376 98.0
33.035557232 113.0
33.040481088 119.0
33.045404944 131.0
33.050328800 121.0
33.055252656 128.0
33.060176512 108.0
33.065100368 103.0
33.070024224 115.0
33.074948080 112.0
33.079871936 120.0
33.084795792 115.0
33.089719648 101.0
33.094643504 106.0
33.099567360 111.0
33.104491216 116.0
33.109415072 117.0
33.114338928 102.0
33.119262784 130.0
33.124186640 103.0
33.129110496 122.0
33.134034352 120.0
33.138958208 101.0
33.143882064 120.0
33.148805920 118.0
33.153729776 129.0
33.158653632 118.0
33.163577488 110.0
33.168501344 106.0
33.173425200 105.0
33.178349056 104.0
33.183272912 119.0
33.188196768 125.0
33.193120624 98.0
33.198044480 108.0
33.202968336 113.0
33.207892192 109.0
33.212816048 113.0
33.217739904 126.0
33.222663760 129.0
33.227587616 119.0
33.232511472 128.0
33.237435328 96.0
33.242359184 98.0
33.247283040 112.0
33.252206897 119.0
33.257130753 111.0
33.262054609 105.0
33.266978465 109.0
33.271902321 116.0
33.276826177 120.0
33.281750033 112.0
33.286673889 105.0
33.291597745 123.0
33.296521601 113.0
33.301445457 115.0
33.306369313 100.0
33.311293169 115.0
33.316217025 101.0
33.321140881 110.0
33.326064737 117.0
33.330988593 118.0
33.335912449 102.0
33.340836305 127.0
33.345760161 114.0
33.350684017 118.0
33.355607873 113.0
33.360531729 113.0
33.365455585 127.0
33.370379441 118.0
33.375303297 94.0
33.380227153 112.0
33.385151009 103.0
33.390074865 120.0
33.394998721 116.0
33.399922577 123.0
33.404846433 107.0
33.409770289 107.0
33.414694145 125.0
33.419618001 129.0
33.424541857 143.0
33.429465713 91.0
33.434389569 111.0
33.439313425 115.0
33.444237281 92.0
33.449161137 103.0
33.454084993 128.0
33.459008849 114.0
33.463932705 108.0
33.468856561 109.0
33.473780417 95.0
33.478704273 128.0
33.483628129 114.0
33.488551985 119.0
33.493475841 145.0
33.498399697 103.0
33.503323553 125.0
33.508247409 121.0
33.513171265 118.0
33.518095121 124.0
33.523018977 123.0
33.527942833 105.0
33.532866689 106.0
33.537790545 119.0
33.542714401 118.0
33.547638257 108.0
33.552562113 101.0
33.557485969 122.0
33.562409825 123.0
33.567333681 106.0
33.572257537 96.0
33.577181393 100.0
33.582105249 116.0
33.587029105 122.0
33.591952961 118.0
33.596876817 129.0
33.601800673 105.0
33.606724529 102.0
33.611648385 123.0
33.616572241 120.0
33.621496097 131.0
33.626419953 101.0
33.631343809 136.0
33.636267665 116.0
33.641191521 156.0
33.646115377 118.0
33.651039233 119.0
33.655963089 105.0
33.660886945 129.0
33.665810801 140.0
33.670734657 133.0
33.675658513 145.0
33.680582369 123.0
33.685506225 135.0
33.690430081 116.0
33.695353937 120.0
33.700277793 125.0
33.705201649 132.0
33.710125505 117.0
33.715049361 159.0
33.719973217 125.0
33.724897073 120.0
33.729820929 129.0
33.734744785 133.0
33.739668641 113.0
33.744592497 127.0
33.749516353 139.0
33.754440210 125.0
33.759364066 117.0
33.764287922 134.0
33.769211778 139.0
33.774135634 115.0
33.779059490 121.0
33.783983346 123.0
33.788907202 104.0
33.793831058 112.0
33.798754914 131.0
33.803678770 140.0
33.808602626 131.0
33.813526482 115.0
33.818450338 143.0
33.823374194 132.0
33.828298050 155.0
33.833221906 154.0
33.838145762 156.0
33.843069618 148.0
33.847993474 164.0
33.852917330 160.0
33.857841186 197.0
33.862765042 217.0
33.867688898 274.0
33.872612754 344.0
33.877536610 448.0
33.882460466 508.0
33.887384322 681.0
33.892308178 862.0
33.897232034 1096.0
33.902155890 1199.0
33.907079746 1321.0
33.912003602 1392.0
33.916927458 1388.0
33.921851314 1369.0
33.926775170 1284.0
33.931699026 1216.0
33.936622882 1088.0
33.941546738 860.0
33.946470594 703.0
33.951394450 624.0
33.956318306 507.0
33.961242162 367.0
33.966166018 340.0
33.971089874 313.0
33.976013730 298.0
33.980937586 220.0
33.985861442 191.0
33.990785298 197.0
33.995709154 194.0
34.000633010 172.0
34.005556866 167.0
34.010480722 161.0
34.015404578 165.0
34.020328434 147.0
34.025252290 177.0
34.030176146 138.0
34.035100002 121.0
34.040023858 134.0
34.044947714 163.0
34.049871570 153.0
34.054795426 157.0
34.059719282 136.0
34.064643138 146.0
34.069566994 155.0
34.074490850 139.0
34.079414706 137.0
34.084338562 151.0
34.089262418 159.0
34.094186274 125.0
34.099110130 133.0
34.104033986 154.0
34.108957842 132.0
34.113881698 148.0
34.118805554 120.0
34.123729410 127.0
34.128653266 162.0
34.133577122 155.0
34.138500978 140.0
34.143424834 129.0
34.148348690 122.0
34.153272546 148.0
34.158196402 150.0
34.163120258 143.0
34.168044114 116.0
34.172967970 140.0
34.177891826 143.0
34.182815682 135.0
34.187739538 127.0
34.192663394 114.0
34.197587250 142.0
34.202511106 126.0
34.207434962 116.0
34.212358818 135.0
34.217282674 147.0
34.222206530 165.0
34.227130386 148.0
34.232054242 148.0
34.236978098 139.0
34.241901954 149.0
34.246825810 123.0
34.251749667 114.0
34.256673523 152.0
34.261597379 119.0
34.266521235 137.0
34.271445091 164.0
34.276368947 127.0
34.281292803 133.0
34.286216659 132.0
34.291140515 147.0
34.296064371 144.0
34.300988227 129.0
34.305912083 129.0
34.310835939 126.0
34.315759795 133.0
34.320683651 122.0
34.325607507 134.0
34.330531363 136.0
34.335455219 135.0
34.340379075 130.0
34.345302931 150.0
34.350226787 128.0
34.355150643 142.0
34.360074499 138.0
34.364998355 122.0
34.369922211 134.0
34.374846067 133.0
34.379769923 138.0
34.384693779 144.0
34.389617635 119.0
34.394541491 138.0
34.399465347 124.0
34.404389203 132.0
34.409313059 133.0
34.414236915 122.0
34.419160771 146.0
34.424084627 147.0
34.429008483 134.0
34.433932339 151.0
34.438856195 138.0
34.443780051 119.0
34.448703907 142.0
34.453627763 132.0
34.458551619 145.0
34.463475475 136.0
34.468399331 137.0
34.473323187 143.0
34.478247043 125.0
34.483170899 144.0
34.488094755 154.0
34.493018611 124.0
34.497942467 146.0
34.502866323 128.0
34.507790179 128.0
34.512714035 160.0
34.517637891 138.0
34.522561747 142.0
34.527485603 133.0
34.532409459 124.0
34.537333315 136.0
34.542257171 148.0
34.547181027 133.0
34.552104883 138.0
34.557028739 125.0
34.561952595 132.0
34.566876451 119.0
34.571800307 124.0
34.576724163 135.0
34.581648019 152.0
34.586571875 135.0
34.591495731 140.0
34.596419587 126.0
34.601343443 162.0
34.606267299 146.0
34.611191155 128.0
34.616115011 146.0
34.621038867 129.0
34.625962723 126.0
34.630886579 142.0
34.635810435 143.0
34.640734291 159.0
34.645658147 144.0
34.650582003 139.0
34.655505859 129.0
34.660429715 131.0
34.665353571 146.0
34.670277427 156.0
34.675201283 157.0
34.680125139 171.0
34.685048995 150.0
34.689972851 115.0
34.694896707 162.0
34.699820563 137.0
34.704744419 136.0
34.709668275 148.0
34.714592131 145.0
34.719515987 126.0
34.724439843 129.0
34.729363699 128.0
34.734287555 141.0
34.739211411 139.0
34.744135267 150.0
34.749059123 160.0
34.753982980 137.0
34.758906836 166.0
34.763830692 143.0
34.768754548 128.0
34.773678404 138.0
34.778602260 149.0
34.783526116 152.0
34.788449972 160.0
34.793373828 147.0
34.798297684 133.0
34.803221540 149.0
34.808145396 152.0
34.813069252 139.0
34.817993108 139.0
34.822916964 148.0
34.827840820 138.0
34.832764676 160.0
34.837688532 150.0
34.842612388 168.0
34.847536244 156.0
34.852460100 146.0
34.857383956 158.0
34.862307812 150.0
34.867231668 166.0
34.872155524 157.0
34.877079380 154.0
34.882003236 165.0
34.886927092 151.0
34.891850948 153.0
34.896774804 163.0
34.901698660 124.0
34.906622516 158.0
34.911546372 144.0
34.916470228 156.0
34.921394084 159.0
34.926317940 157.0
34.931241796 153.0
34.936165652 169.0
34.941089508 159.0
34.946013364 149.0
34.950937220 156.0
34.955861076 173.0
34.960784932 159.0
34.965708788 162.0
34.970632644 168.0
34.975556500 166.0
34.980480356 132.0
34.985404212 165.0
34.990328068 144.0
34.995251924 152.0
35.000175780 174.0
35.005099636 171.0
35.010023492 168.0
35.014947348 165.0
35.019871204 164.0
35.024795060 179.0
35.029718916 174.0
35.034642772 154.0
35.039566628 145.0
35.044490484 167.0
35.049414340 147.0
35.054338196 151.0
35.059262052 176.0
35.064185908 175.0
35.069109764 154.0
35.074033620 158.0
35.078957476 151.0
35.083881332 157.0
35.088805188 188.0
35.093729044 172.0
35.098652900 172.0
35.103576756 189.0
35.108500612 191.0
35.113424468 173.0
35.118348324 196.0
35.123272180 182.0
35.128196036 172.0
35.133119892 164.0
35.138043748 188.0
35.142967604 166.0
35.147891460 158.0
35.152815316 177.0
35.157739172 167.0
35.162663028 204.0
35.167586884 198.0
35.172510740 173.0
35.177434596 194.0
35.182358452 176.0
35.187282308 155.0
35.192206164 190.0
35.197130020 181.0
35.202053876 203.0
35.206977732 217.0
35.211901588 191.0
35.216825444 205.0
35.221749300 183.0
35.226673156 198.0
35.231597012 206.0
35.236520868 170.0
35.241444724 200.0
35.246368580 193.0
35.251292437 183.0
35.256216293 238.0
35.261140149 191.0
35.266064005 200.0
35.270987861 211.0
35.275911717 213.0
35.280835573 228.0
35.285759429 174.0
35.290683285 191.0
35.295607141 218.0
35.300530997 207.0
35.305454853 203.0
35.310378709 206.0
35.315302565 202.0
35.320226421 235.0
35.325150277 238.0
35.330074133 234.0
35.334997989 221.0
35.339921845 261.0
35.344845701 241.0
35.349769557 235.0
35.354693413 242.0
35.359617269 232.0
35.364541125 259.0
35.369464981 224.0
35.374388837 220.0
35.379312693 226.0
35.384236549 228.0
35.389160405 235.0
35.394084261 267.0
35.399008117 269.0
35.403931973 225.0
35.408855829 260.0
35.413779685 242.0
35.418703541 287.0
35.423627397 293.0
35.428551253 301.0
35.433475109 290.0
35.438398965 272.0
35.443322821 300.0
35.448246677 297.0
35.453170533 278.0
35.458094389 298.0
35.463018245 284.0
35.467942101 259.0
35.472865957 296.0
35.477789813 286.0
35.482713669 288.0
35.487637525 266.0
35.492561381 304.0
35.497485237 350.0
35.502409093 320.0
35.507332949 328.0
35.512256805 290.0
35.517180661 320.0
35.522104517 339.0
35.527028373 292.0
35.531952229 353.0
35.536876085 355.0
35.541799941 328.0
35.546723797 369.0
35.551647653 404.0
35.556571509 412.0
35.561495365 411.0
35.566419221 403.0
35.571343077 394.0
35.576266933 384.0
35.581190789 421.0
35.586114645 418.0
35.591038501 417.0
35.595962357 415.0
35.600886213 414.0
35.605810069 424.0
35.610733925 442.0
35.615657781 508.0
35.620581637 468.0
35.625505493 454.0
35.630429349 475.0
35.635353205 533.0
35.640277061 582.0
35.645200917 582.0
35.650124773 526.0
35.655048629 593.0
35.659972485 575.0
35.664896341 632.0
35.669820197 665.0
35.674744053 698.0
35.679667909 702.0
35.684591765 743.0
35.689515621 709.0
35.694439477 773.0
35.699363333 784.0
35.704287189 851.0
35.709211045 868.0
35.714134901 894.0
35.719058757 912.0
35.723982613 902.0
35.728906469 1062.0
35.733830325 1011.0
35.738754181 1031.0
35.743678037 1185.0
35.748601893 1230.0
35.753525750 1316.0
35.758449606 1342.0
35.763373462 1419.0
35.768297318 1539.0
35.773221174 1516.0
35.778145030 1648.0
35.783068886 1759.0
35.787992742 1860.0
35.792916598 1979.0
35.797840454 2045.0
35.802764310 2336.0
35.807688166 2441.0
35.812612022 2543.0
35.817535878 2903.0
35.822459734 3055.0
35.827383590 3416.0
35.832307446 3779.0
35.837231302 4040.0
35.842155158 4279.0
35.847079014 4794.0
35.852002870 5304.0
35.856926726 5879.0
35.861850582 6451.0
35.866774438 6903.0
35.871698294 7360.0
35.876622150 8157.0
35.881546006 8999.0
35.886469862 9387.0
35.891393718 10037.0
35.896317574 10582.0
35.901241430 11241.0
35.906165286 12006.0
35.911089142 12490.0
35.916012998 13120.0
35.920936854 13726.0
35.925860710 14049.0
35.930784566 14581.0
35.935708422 14800.0
35.940632278 15028.0
35.945556134 15064.0
35.950479990 15232.0
35.955403846 15398.0
35.960327702 15554.0
35.965251558 15425.0
35.970175414 15389.0
35.975099270 15102.0
35.980023126 14985.0
35.984946982 14936.0
35.989870838 14716.0
35.994794694 14302.0
35.999718550 13862.0
36.004642406 13600.0
36.009566262 13306.0
36.014490118 12860.0
36.019413974 12573.0
36.024337830 11947.0
36.029261686 11711.0
36.034185542 11077.0
36.039109398 10855.0
36.044033254 10393.0
36.048957110 9999.0
36.053880966 9648.0
36.058804822 9091.0
36.063728678 8651.0
36.068652534 8394.0
36.073576390 8152.0
36.078500246 7485.0
36.083424102 7114.0
36.088347958 6656.0
36.093271814 6388.0
36.098195670 6017.0
36.103119526 5685.0
36.108043382 5070.0
36.112967238 4834.0
36.117891094 4507.0
36.122814950 4225.0
36.127738806 3950.0
36.132662662 3642.0
36.137586518 3305.0
36.142510374 3182.0
36.147434230 2903.0
36.152358086 2698.0
36.157281942 2522.0
36.162205798 2487.0
36.167129654 2324.0
36.172053510 2313.0
36.176977366 2092.0
36.181901222 2007.0
36.186825078 1954.0
36.191748934 1885.0
36.196672790 1788.0
36.201596646 1692.0
36.206520502 1665.0
36.211444358 1592.0
36.216368214 1530.0
36.221292070 1393.0
36.226215926 1413.0
36.231139782 1321.0
36.236063638 1291.0
36.240987494 1265.0
36.245911350 1156.0
36.250835207 1160.0
36.255759063 1126.0
36.260682919 986.0
36.265606775 1014.0
36.270530631 1026.0
36.275454487 966.0
36.280378343 954.0
36.285302199 874.0
36.290226055 877.0
36.295149911 819.0
36.300073767 796.0
36.304997623 847.0
36.309921479 816.0
36.314845335 713.0
36.319769191 784.0
36.324693047 757.0
36.329616903 733.0
36.334540759 728.0
36.339464615 676.0
36.344388471 694.0
36.349312327 652.0
36.354236183 676.0
36.359160039 645.0
36.364083895 583.0
36.369007751 615.0
36.373931607 569.0
36.378855463 603.0
36.383779319 562.0
36.388703175 547.0
36.393627031 544.0
36.398550887 496.0
36.403474743 563.0
36.408398599 501.0
36.413322455 513.0
36.418246311 512.0
36.423170167 493.0
36.428094023 512.0
36.433017879 493.0
36.437941735 479.0
36.442865591 478.0
36.447789447 466.0
36.452713303 474.0
36.457637159 429.0
36.462561015 426.0
36.467484871 466.0
36.472408727 402.0
36.477332583 424.0
36.482256439 431.0
36.487180295 450.0
36.492104151 412.0
36.497028007 444.0
36.501951863 430.0
36.506875719 438.0
36.511799575 399.0
36.516723431 407.0
36.521647287 418.0
36.526571143 415.0
36.531494999 393.0
36.536418855 375.0
36.541342711 396.0
36.546266567 412.0
36.551190423 378.0
36.556114279 388.0
36.561038135 394.0
36.565961991 379.0
36.570885847 413.0
36.575809703 360.0
36.580733559 388.0
36.585657415 398.0
36.590581271 372.0
36.595505127 386.0
36.600428983 363.0
36.605352839 346.0
36.610276695 361.0
36.615200551 352.0
36.620124407 387.0
36.625048263 354.0
36.629972119 406.0
36.634895975 381.0
36.639819831 350.0
36.644743687 361.0
36.649667543 378.0
36.654591399 355.0
36.659515255 361.0
36.664439111 375.0
36.669362967 360.0
36.674286823 377.0
36.679210679 364.0
36.684134535 393.0
36.689058391 357.0
36.693982247 391.0
36.698906103 343.0
36.703829959 379.0
36.708753815 347.0
36.713677671 357.0
36.718601527 355.0
36.723525383 381.0
36.728449239 365.0
36.733373095 360.0
36.738296951 353.0
36.743220807 383.0
36.748144663 433.0
36.753068520 402.0
36.757992376 406.0
36.762916232 385.0
36.767840088 401.0
36.772763944 363.0
36.777687800 355.0
36.782611656 377.0
36.787535512 382.0
36.792459368 394.0
36.797383224 401.0
36.802307080 423.0
36.807230936 407.0
36.812154792 414.0
36.817078648 375.0
36.822002504 397.0
36.826926360 440.0
36.831850216 415.0
36.836774072 429.0
36.841697928 417.0
36.846621784 408.0
36.851545640 390.0
36.856469496 396.0
36.861393352 392.0
36.866317208 444.0
36.871241064 454.0
36.876164920 422.0
36.881088776 450.0
36.886012632 400.0
36.890936488 458.0
36.895860344 447.0
36.900784200 427.0
36.905708056 412.0
36.910631912 441.0
36.915555768 424.0
36.920479624 425.0
36.925403480 479.0
36.930327336 487.0
36.935251192 494.0
36.940175048 459.0
36.945098904 454.0
36.950022760 461.0
36.954946616 468.0
36.959870472 468.0
36.964794328 443.0
36.969718184 439.0
36.974642040 424.0
36.979565896 484.0
36.984489752 458.0
36.989413608 515.0
36.994337464 476.0
36.999261320 503.0
37.004185176 489.0
37.009109032 477.0
37.014032888 530.0
37.018956744 423.0
37.023880600 511.0
37.028804456 457.0
37.033728312 489.0
37.038652168 477.0
37.043576024 508.0
37.048499880 516.0
37.053423736 524.0
37.058347592 493.0
37.063271448 502.0
37.068195304 495.0
37.073119160 518.0
37.078043016 536.0
37.082966872 522.0
37.087890728 517.0
37.092814584 537.0
37.097738440 529.0
37.102662296 557.0
37.107586152 561.0
37.112510008 526.0
37.117433864 530.0
37.122357720 542.0
37.127281576 576.0
37.132205432 559.0
37.137129288 599.0
37.142053144 569.0
37.146977000 618.0
37.151900856 630.0
37.156824712 577.0
37.161748568 648.0
37.166672424 595.0
37.171596280 576.0
37.176520136 604.0
37.181443992 602.0
37.186367848 607.0
37.191291704 594.0
37.196215560 692.0
37.201139416 669.0
37.206063272 644.0
37.210987128 610.0
37.215910984 697.0
37.220834840 674.0
37.225758696 716.0
37.230682552 690.0
37.235606408 705.0
37.240530264 679.0
37.245454120 722.0
37.250377977 761.0
37.255301833 713.0
37.260225689 804.0
37.265149545 739.0
37.270073401 776.0
37.274997257 719.0
37.279921113 832.0
37.284844969 769.0
37.289768825 802.0
37.294692681 808.0
37.299616537 905.0
37.304540393 907.0
37.309464249 873.0
37.314388105 879.0
37.319311961 877.0
37.324235817 876.0
37.329159673 861.0
37.334083529 985.0
37.339007385 922.0
37.343931241 1031.0
37.348855097 973.0
37.353778953 1020.0
37.358702809 998.0
37.363626665 1014.0
37.368550521 1016.0
37.373474377 1057.0
37.378398233 1087.0
37.383322089 1110.0
37.388245945 1119.0
37.393169801 1133.0
37.398093657 1201.0
37.403017513 1230.0
37.407941369 1181.0
37.412865225 1314.0
37.417789081 1333.0
37.422712937 1323.0
37.427636793 1377.0
37.432560649 1452.0
37.437484505 1566.0
37.442408361 1657.0
37.447332217 1731.0
37.452256073 1977.0
37.457179929 1982.0
37.462103785 2272.0
37.467027641 2341.0
37.471951497 2749.0
37.476875353 2837.0
37.481799209 3167.0
37.486723065 3376.0
37.491646921 3503.0
37.496570777 3811.0
37.501494633 4120.0
37.506418489 4185.0
37.511342345 4368.0
37.516266201 4282.0
37.521190057 4385.0
37.526113913 4324.0
37.531037769 4249.0
37.535961625 4403.0
37.540885481 4247.0
37.545809337 4338.0
37.550733193 4259.0
37.555657049 4403.0
37.560580905 4663.0
37.565504761 4978.0
37.570428617 5117.0
37.575352473 5475.0
37.580276329 5953.0
37.585200185 6484.0
37.590124041 7233.0
37.595047897 8015.0
37.599971753 9332.0
37.604895609 10837.0
37.609819465 12766.0
37.614743321 15194.0
37.619667177 18938.0
37.624591033 23958.0
37.629514889 32538.0
37.634438745 46489.0
37.639362601 74689.0
37.644286457 121139.0
37.649210313 183950.0
37.654134169 236871.0
37.659058025 272807.0
37.663981881 295360.0
37.668905737 304731.0
37.673829593 309014.0
37.678753449 308523.0
37.683677305 301826.0
37.688601161 285863.0
37.693525017 249401.0
37.698448873 188255.0
37.703372729 128873.0
37.708296585 84030.0
37.713220441 58073.0
37.718144297 43850.0
37.723068153 37118.0
37.727992009 36613.0
37.732915865 41566.0
37.737839721 54823.0
37.742763577 77750.0
37.747687433 104986.0
37.752611290 128078.0
37.757535146 144607.0
37.762459002 153904.0
37.767382858 159799.0
37.772306714 160127.0
37.777230570 157473.0
37.782154426 152360.0
37.787078282 140741.0
37.792002138 119894.0
37.796925994 90820.0
37.801849850 63998.0
37.806773706 41902.0
37.811697562 28367.0
37.816621418 20373.0
37.821545274 15459.0
37.826469130 12249.0
37.831392986 9842.0
37.836316842 8589.0
37.841240698 7448.0
37.846164554 6654.0
37.851088410 5767.0
37.856012266 5571.0
37.860936122 4842.0
37.865859978 4712.0
37.870783834 4204.0
37.875707690 4165.0
37.880631546 3606.0
37.885555402 3594.0
37.890479258 3141.0
37.895403114 3158.0
37.900326970 2878.0
37.905250826 2928.0
37.910174682 2581.0
37.915098538 2682.0
37.920022394 2427.0
37.924946250 2480.0
37.929870106 2334.0
37.934793962 2239.0
37.939717818 2163.0
37.944641674 2040.0
37.949565530 2009.0
37.954489386 1898.0
37.959413242 1941.0
37.964337098 1776.0
37.969260954 1686.0
37.974184810 1724.0
37.979108666 1687.0
37.984032522 1728.0
37.988956378 1564.0
37.993880234 1577.0
37.998804090 1519.0
38.003727946 1480.0
38.008651802 1428.0
38.013575658 1324.0
38.018499514 1413.0
38.023423370 1366.0
38.028347226 1395.0
38.033271082 1242.0
38.038194938 1284.0
38.043118794 1255.0
38.048042650 1211.0
38.052966506 1277.0
38.057890362 1108.0
38.062814218 1192.0
38.067738074 1132.0
38.072661930 1137.0
38.077585786 1048.0
38.082509642 1118.0
38.087433498 1030.0
38.092357354 1007.0
38.097281210 994.0
38.102205066 973.0
38.107128922 1008.0
38.112052778 923.0
38.116976634 1023.0
38.121900490 899.0
38.126824346 955.0
38.131748202 890.0
38.136672058 910.0
38.141595914 861.0
38.146519770 844.0
38.151443626 854.0
38.156367482 833.0
38.161291338 886.0
38.166215194 767.0
38.171139050 886.0
38.176062906 807.0
38.180986762 806.0
38.185910618 795.0
38.190834474 748.0
38.195758330 727.0
38.200682186 691.0
38.205606042 705.0
38.210529898 719.0
38.215453754 722.0
38.220377610 685.0
38.225301466 675.0
38.230225322 665.0
38.235149178 668.0
38.240073034 651.0
38.244996890 667.0
38.249920747 622.0
38.254844603 603.0
38.259768459 670.0
38.264692315 622.0
38.269616171 617.0
38.274540027 533.0
38.279463883 646.0
38.284387739 581.0
38.289311595 615.0
38.294235451 564.0
38.299159307 556.0
38.304083163 557.0
38.309007019 553.0
38.313930875 494.0
38.318854731 524.0
38.323778587 499.0
38.328702443 519.0
38.333626299 495.0
38.338550155 492.0
38.343474011 496.0
38.348397867 470.0
38.353321723 467.0
38.358245579 459.0
38.363169435 475.0
38.368093291 495.0
38.373017147 469.0
38.377941003 491.0
38.382864859 455.0
38.387788715 445.0
38.392712571 429.0
38.397636427 426.0
38.402560283 449.0
38.407484139 401.0
38.412407995 424.0
38.417331851 391.0
38.422255707 478.0
38.427179563 407.0
38.432103419 395.0
38.437027275 400.0
38.441951131 386.0
38.446874987 409.0
38.451798843 388.0
38.456722699 406.0
38.461646555 352.0
38.466570411 366.0
38.471494267 355.0
38.476418123 318.0
38.481341979 390.0
38.486265835 353.0
38.491189691 360.0
38.496113547 330.0
38.501037403 316.0
38.505961259 378.0
38.510885115 348.0
38.515808971 328.0
38.520732827 301.0
38.525656683 339.0
38.530580539 311.0
38.535504395 352.0
38.540428251 300.0
38.545352107 321.0
38.550275963 320.0
38.555199819 288.0
38.560123675 289.0
38.565047531 277.0
38.569971387 312.0
38.574895243 295.0
38.579819099 307.0
38.584742955 278.0
38.589666811 309.0
38.594590667 316.0
38.599514523 215.0
38.604438379 263.0
38.609362235 286.0
38.614286091 286.0
38.619209947 285.0
38.624133803 266.0
38.629057659 229.0
38.633981515 226.0
38.638905371 262.0
38.643829227 275.0
38.648753083 216.0
38.653676939 222.0
38.658600795 217.0
38.663524651 205.0
38.668448507 267.0
38.673372363 192.0
38.678296219 217.0
38.683220075 189.0
38.688143931 203.0
38.693067787 204.0
38.697991643 194.0
38.702915499 265.0
38.707839355 209.0
38.712763211 226.0
38.717687067 228.0
38.722610923 206.0
38.727534779 215.0
38.732458635 206.0
38.737382491 208.0
38.742306347 187.0
38.747230203 187.0
38.752154060 175.0
38.757077916 193.0
38.762001772 185.0
38.766925628 204.0
38.771849484 207.0
38.776773340 192.0
38.781697196 203.0
38.786621052 207.0
38.791544908 182.0
38.796468764 196.0
38.801392620 189.0
38.806316476 176.0
38.811240332 179.0
38.816164188 217.0
38.821088044 199.0
38.826011900 183.0
38.830935756 167.0
38.835859612 175.0
38.840783468 182.0
38.845707324 178.0
38.850631180 184.0
38.855555036 186.0
38.860478892 175.0
38.865402748 189.0
38.870326604 186.0
38.875250460 192.0
38.880174316 167.0
38.885098172 160.0
38.890022028 170.0
38.894945884 163.0
38.899869740 171.0
38.904793596 174.0
38.909717452 188.0
38.914641308 177.0
38.919565164 170.0
38.924489020 163.0
38.929412876 147.0
38.934336732 182.0
38.939260588 155.0
38.944184444 168.0
38.949108300 170.0
38.954032156 178.0
38.958956012 166.0
38.963879868 168.0
38.968803724 175.0
38.973727580 175.0
38.978651436 171.0
38.983575292 171.0
38.988499148 161.0
38.993423004 169.0
38.998346860 146.0
39.003270716 179.0
39.008194572 159.0
39.013118428 194.0
39.018042284 170.0
39.022966140 161.0
39.027889996 149.0
39.032813852 179.0
39.037737708 179.0
39.042661564 142.0
39.047585420 158.0
39.052509276 158.0
39.057433132 159.0
39.062356988 158.0
39.067280844 166.0
39.072204700 149.0
39.077128556 147.0
39.082052412 147.0
39.086976268 133.0
39.091900124 169.0
39.096823980 145.0
39.101747836 157.0
39.106671692 153.0
39.111595548 139.0
39.116519404 147.0
39.121443260 153.0
39.126367116 170.0
39.131290972 136.0
39.136214828 163.0
39.141138684 139.0
39.146062540 167.0
39.150986396 147.0
39.155910252 152.0
39.160834108 152.0
39.165757964 143.0
39.170681820 132.0
39.175605676 129.0
39.180529532 122.0
39.185453388 139.0
39.190377244 144.0
39.195301100 166.0
39.200224956 169.0
39.205148812 134.0
39.210072668 140.0
39.214996524 140.0
39.219920380 149.0
39.224844236 139.0
39.229768092 142.0
39.234691948 155.0
39.239615804 123.0
39.244539660 152.0
39.249463517 135.0
39.254387373 148.0
39.259311229 133.0
39.264235085 140.0
39.269158941 144.0
39.274082797 137.0
39.279006653 141.0
39.283930509 134.0
39.288854365 145.0
39.293778221 147.0
39.298702077 148.0
39.303625933 153.0
39.308549789 148.0
39.313473645 146.0
39.318397501 162.0
39.323321357 154.0
39.328245213 144.0
39.333169069 138.0
39.338092925 145.0
39.343016781 142.0
39.347940637 153.0
39.352864493 124.0
39.357788349 134.0
39.362712205 154.0
39.367636061 125.0
39.372559917 133.0
39.377483773 133.0
39.382407629 129.0
39.387331485 129.0
39.392255341 127.0
39.397179197 125.0
39.402103053 135.0
39.407026909 124.0
39.411950765 128.0
39.416874621 163.0
39.421798477 129.0
39.426722333 138.0
39.431646189 162.0
39.436570045 116.0
39.441493901 126.0
39.446417757 142.0
39.451341613 132.0
39.456265469 138.0
39.461189325 116.0
39.466113181 130.0
39.471037037 134.0
39.475960893 134.0
39.480884749 131.0
39.485808605 143.0
39.490732461 157.0
39.495656317 130.0
39.500580173 148.0
39.505504029 116.0
39.510427885 136.0
39.515351741 130.0
39.520275597 118.0
39.525199453 142.0
39.530123309 131.0
39.535047165 151.0
39.539971021 138.0
39.544894877 155.0
39.549818733 130.0
39.554742589 159.0
39.559666445 107.0
39.564590301 128.0
39.569514157 132.0
39.574438013 115.0
39.579361869 143.0
39.584285725 111.0
39.589209581 132.0
39.594133437 140.0
39.599057293 140.0
39.603981149 115.0
39.608905005 128.0
39.613828861 144.0
39.618752717 114.0
39.623676573 123.0
39.628600429 127.0
39.633524285 141.0
39.638448141 142.0
39.643371997 134.0
39.648295853 139.0
39.653219709 118.0
39.658143565 119.0
39.663067421 111.0
39.667991277 122.0
39.672915133 104.0
39.677838989 131.0
39.682762845 133.0
39.687686701 143.0
39.692610557 124.0
39.697534413 152.0
39.702458269 117.0
39.707382125 111.0
39.712305981 127.0
39.717229837 141.0
39.722153693 110.0
39.727077549 127.0
39.732001405 123.0
39.736925261 129.0
39.741849117 145.0
39.746772973 120.0
39.751696830 132.0
39.756620686 132.0
39.761544542 121.0
39.766468398 118.0
39.771392254 142.0
39.776316110 108.0
39.781239966 117.0
39.786163822 123.0
39.791087678 116.0
39.796011534 127.0
39.800935390 141.0
39.805859246 143.0
39.810783102 143.0
39.815706958 133.0
39.820630814 119.0
39.825554670 125.0
39.830478526 129.0
39.835402382 108.0
39.840326238 122.0
39.845250094 116.0
39.850173950 109.0
39.855097806 123.0
39.860021662 106.0
39.864945518 149.0
39.869869374 119.0
39.874793230 120.0
39.879717086 139.0
39.884640942 117.0
39.889564798 126.0
39.894488654 126.0
39.899412510 122.0
39.904336366 127.0
39.909260222 125.0
39.914184078 133.0
39.919107934 118.0
39.924031790 129.0
39.928955646 118.0
39.933879502 134.0
39.938803358 133.0
39.943727214 132.0
39.948651070 120.0
39.953574926 136.0
39.958498782 120.0
39.963422638 107.0
39.968346494 117.0
39.973270350 113.0
39.978194206 143.0
39.983118062 134.0
39.988041918 115.0
39.992965774 120.0
39.997889630 129.0
