55.001861930 106.0
55.006785786 128.0
55.011709642 143.0
55.016633498 115.0
55.021557354 119.0
55.026481210 111.0
55.031405066 110.0
55.036328922 106.0
55.041252778 130.0
55.046176634 118.0
55.051100490 131.0
55.056024346 117.0
55.060948202 120.0
55.065872058 101.0
55.070795914 117.0
55.075719770 135.0
55.080643626 109.0
55.085567482 121.0
55.090491338 116.0
55.095415194 118.0
55.100339050 125.0
55.105262906 147.0
55.110186762 103.0
55.115110618 125.0
55.120034474 121.0
55.124958330 115.0
55.129882186 113.0
55.134806042 109.0
55.139729898 108.0
55.144653754 128.0
55.149577610 116.0
55.154501466 126.0
55.159425322 124.0
55.164349178 130.0
55.169273034 101.0
55.174196890 116.0
55.179120746 124.0
55.184044602 126.0
55.188968459 103.0
55.193892315 130.0
55.198816171 103.0
55.203740027 118.0
55.208663883 133.0
55.213587739 103.0
55.218511595 109.0
55.223435451 110.0
55.228359307 126.0
55.233283163 119.0
55.238207019 115.0
55.243130875 117.0
55.248054731 107.0
55.252978587 124.0
55.257902443 122.0
55.262826299 119.0
55.267750155 131.0
55.272674011 125.0
55.277597867 120.0
55.282521723 134.0
55.287445579 108.0
55.292369435 95.0
55.297293291 120.0
55.302217147 107.0
55.307141003 110.0
55.312064859 114.0
55.316988715 106.0
55.321912571 119.0
55.326836427 120.0
55.331760283 127.0
55.336684139 111.0
55.341607995 108.0
55.346531851 119.0
55.351455707 128.0
55.356379563 110.0
55.361303419 108.0
55.366227275 101.0
55.371151131 123.0
55.376074987 126.0
55.380998843 107.0
55.385922699 133.0
55.390846555 148.0
55.395770411 108.0
55.400694267 129.0
55.405618123 117.0
55.410541979 132.0
55.415465835 121.0
55.420389691 119.0
55.425313547 124.0
55.430237403 135.0
55.435161259 116.0
55.440085115 108.0
55.445008971 96.0
55.449932827 125.0
55.454856683 145.0
55.459780539 109.0
55.464704395 128.0
55.469628251 124.0
55.474552107 107.0
55.479475963 108.0
55.484399819 122.0
55.489323675 120.0
55.494247531 116.0
55.499171387 97.0
55.504095243 122.0
55.509019099 115.0
55.513942955 123.0
55.518866811 132.0
55.523790667 119.0
55.528714523 135.0
55.533638379 114.0
55.538562235 122.0
55.543486091 112.0
55.548409947 102.0
55.553333803 113.0
55.558257660 116.0
55.563181516 136.0
55.568105372 125.0
55.573029228 110.0
55.577953084 129.0
55.582876940 120.0
55.587800796 115.0
55.592724652 115.0
55.597648508 119.0
55.602572364 119.0
55.607496220 131.0
55.612420076 132.0
55.617343932 115.0
55.622267788 106.0
55.627191644 126.0
55.632115500 114.0
55.637039356 108.0
55.641963212 122.0
55.646887068 114.0
55.651810924 98.0
55.656734780 101.0
55.661658636 119.0
55.666582492 138.0
55.671506348 110.0
55.676430204 114.0
55.681354060 137.0
55.686277916 111.0
55.691201772 108.0
55.696125628 117.0
55.701049484 117.0
55.705973340 113.0
55.710897196 123.0
55.715821052 114.0
55.720744908 132.0
55.725668764 127.0
55.730592620 122.0
55.735516476 116.0
55.740440332 120.0
55.745364188 117.0
55.750288044 97.0
55.755211900 108.0
55.760135756 103.0
55.765059612 116.0
55.769983468 109.0
55.774907324 125.0
55.779831180 107.0
55.784755036 136.0
55.789678892 139.0
55.794602748 101.0
55.799526604 92.0
55.804450460 128.0
55.809374316 134.0
55.814298172 93.0
55.819222028 115.0
55.824145884 123.0
55.829069740 127.0
55.833993596 119.0
55.838917452 130.0
55.843841308 108.0
55.848765164 119.0
55.853689020 121.0
55.858612876 122.0
55.863536732 116.0
55.868460588 121.0
55.873384444 113.0
55.878308300 112.0
55.883232156 108.0
55.888156012 116.0
55.893079868 123.0
55.898003724 95.0
55.902927580 127.0
55.907851436 127.0
55.912775292 126.0
55.917699148 115.0
55.922623004 127.0
55.927546860 126.0
55.932470717 121.0
55.937394573 105.0
55.942318429 124.0
55.947242285 125.0
55.952166141 110.0
55.957089997 112.0
55.962013853 117.0
55.966937709 118.0
55.971861565 118.0
55.976785421 105.0
55.981709277 114.0
55.986633133 121.0
55.991556989 118.0
55.996480845 125.0
56.001404701 105.0
56.006328557 109.0
56.011252413 108.0
56.016176269 119.0
56.021100125 116.0
56.026023981 124.0
56.030947837 124.0
56.035871693 107.0
56.040795549 109.0
56.045719405 114.0
56.050643261 113.0
56.055567117 126.0
56.060490973 130.0
56.065414829 100.0
56.070338685 110.0
56.075262541 114.0
56.080186397 133.0
56.085110253 102.0
56.090034109 106.0
56.094957965 135.0
56.099881821 116.0
56.104805677 107.0
56.109729533 114.0
56.114653389 122.0
56.119577245 111.0
56.124501101 111.0
56.129424957 110.0
56.134348813 131.0
56.139272669 100.0
56.144196525 131.0
56.149120381 113.0
56.154044237 112.0
56.158968093 105.0
56.163891949 105.0
56.168815805 116.0
56.173739661 106.0
56.178663517 110.0
56.183587373 127.0
56.188511229 127.0
56.193435085 142.0
56.198358941 128.0
56.203282797 131.0
56.208206653 126.0
56.213130509 93.0
56.218054365 132.0
56.222978221 106.0
56.227902077 137.0
56.232825933 124.0
56.237749789 128.0
56.242673645 118.0
56.247597501 107.0
56.252521357 102.0
56.257445213 125.0
56.262369069 128.0
56.267292925 106.0
56.272216781 124.0
56.277140637 106.0
56.282064493 126.0
56.286988349 115.0
56.291912205 124.0
56.296836061 130.0
56.301759918 113.0
56.306683774 134.0
56.311607630 112.0
56.316531486 120.0
56.321455342 110.0
56.326379198 117.0
56.331303054 130.0
56.336226910 115.0
56.341150766 113.0
56.346074622 115.0
56.350998478 132.0
56.355922334 114.0
56.360846190 111.0
56.365770046 124.0
56.370693902 129.0
56.375617758 114.0
56.380541614 104.0
56.385465470 125.0
56.390389326 109.0
56.395313182 123.0
56.400237038 125.0
56.405160894 118.0
56.410084750 120.0
56.415008606 132.0
56.419932462 114.0
56.424856318 124.0
56.429780174 122.0
56.434704030 104.0
56.439627886 135.0
56.444551742 108.0
56.449475598 123.0
56.454399454 126.0
56.459323310 127.0
56.464247166 115.0
56.469171022 108.0
56.474094878 124.0
56.479018734 109.0
56.483942590 104.0
56.488866446 114.0
56.493790302 128.0
56.498714158 119.0
56.503638014 127.0
56.508561870 113.0
56.513485726 117.0
56.518409582 120.0
56.523333438 111.0
56.528257294 115.0
56.533181150 114.0
56.538105006 119.0
56.543028862 107.0
56.547952718 125.0
56.552876574 91.0
56.557800430 127.0
56.562724286 112.0
56.567648142 102.0
56.572571998 117.0
56.577495854 109.0
56.582419710 134.0
56.587343566 114.0
56.592267422 130.0
56.597191278 103.0
56.602115134 118.0
56.607038990 129.0
56.611962846 127.0
56.616886702 138.0
56.621810558 140.0
56.626734414 135.0
56.631658270 114.0
56.636582126 129.0
56.641505982 128.0
56.646429838 115.0
56.651353694 122.0
56.656277550 114.0
56.661201406 95.0
56.666125262 109.0
56.671049119 115.0
56.675972975 124.0
56.680896831 111.0
56.685820687 134.0
56.690744543 108.0
56.695668399 115.0
56.700592255 117.0
56.705516111 125.0
56.710439967 115.0
56.715363823 122.0
56.720287679 144.0
56.725211535 119.0
56.730135391 107.0
56.735059247 109.0
56.739983103 122.0
56.744906959 86.0
56.749830815 121.0
56.754754671 112.0
56.759678527 115.0
56.764602383 117.0
56.769526239 117.0
56.774450095 103.0
56.779373951 122.0
56.784297807 125.0
56.789221663 112.0
56.794145519 104.0
56.799069375 145.0
56.803993231 113.0
56.808917087 139.0
56.813840943 102.0
56.818764799 135.0
56.823688655 128.0
56.828612511 107.0
56.833536367 131.0
56.838460223 116.0
56.843384079 100.0
56.848307935 124.0
56.853231791 117.0
56.858155647 135.0
56.863079503 123.0
56.868003359 98.0
56.872927215 111.0
56.877851071 124.0
56.882774927 115.0
56.887698783 102.0
56.892622639 124.0
56.897546495 132.0
56.902470351 116.0
56.907394207 106.0
56.912318063 122.0
56.917241919 129.0
56.922165775 117.0
56.927089631 124.0
56.932013487 94.0
56.936937343 119.0
56.941861199 124.0
56.946785055 123.0
56.951708911 129.0
56.956632767 114.0
56.961556623 131.0
56.966480479 116.0
56.971404335 143.0
56.976328191 126.0
56.981252047 126.0
56.986175903 126.0
56.991099759 111.0
56.996023615 117.0
57.000947471 125.0
57.005871327 136.0
57.010795183 114.0
57.015719039 123.0
57.020642895 115.0
57.025566751 129.0
57.030490607 127.0
57.035414463 111.0
57.040338320 112.0
57.045262176 120.0
57.050186032 116.0
57.055109888 123.0
57.060033744 122.0
57.064957600 116.0
57.069881456 154.0
57.074805312 138.0
57.079729168 122.0
57.084653024 130.0
57.089576880 136.0
57.094500736 109.0
57.099424592 122.0
57.104348448 129.0
57.109272304 111.0
57.114196160 153.0
57.119120016 135.0
57.124043872 141.0
57.128967728 112.0
57.133891584 132.0
57.138815440 112.0
57.143739296 125.0
57.148663152 120.0
57.153587008 137.0
57.158510864 132.0
57.163434720 116.0
57.168358576 107.0
57.173282432 120.0
57.178206288 128.0
57.183130144 128.0
57.188054000 128.0
57.192977856 95.0
57.197901712 128.0
57.202825568 106.0
57.207749424 134.0
57.212673280 116.0
57.217597136 116.0
57.222520992 113.0
57.227444848 126.0
57.232368704 120.0
57.237292560 109.0
57.242216416 118.0
57.247140272 120.0
57.252064128 134.0
57.256987984 121.0
57.261911840 126.0
57.266835696 114.0
57.271759552 99.0
57.276683408 103.0
57.281607264 132.0
57.286531120 130.0
57.291454976 102.0
57.296378832 136.0
57.301302688 129.0
57.306226544 132.0
57.311150400 123.0
57.316074256 123.0
57.320998112 102.0
57.325921968 107.0
57.330845824 118.0
57.335769680 117.0
57.340693536 125.0
57.345617392 128.0
57.350541248 114.0
57.355465104 120.0
57.360388960 118.0
57.365312816 122.0
57.370236672 113.0
57.375160528 124.0
57.380084384 131.0
57.385008240 133.0
57.389932096 112.0
57.394855952 112.0
57.399779808 115.0
57.404703664 113.0
57.409627521 120.0
57.414551377 125.0
57.419475233 138.0
57.424399089 111.0
57.429322945 125.0
57.434246801 123.0
57.439170657 110.0
57.444094513 115.0
57.449018369 117.0
57.453942225 112.0
57.458866081 122.0
57.463789937 121.0
57.468713793 102.0
57.473637649 118.0
57.478561505 130.0
57.483485361 96.0
57.488409217 123.0
57.493333073 125.0
57.498256929 122.0
57.503180785 102.0
57.508104641 116.0
57.513028497 123.0
57.517952353 121.0
57.522876209 99.0
57.527800065 126.0
57.532723921 133.0
57.537647777 121.0
57.542571633 129.0
57.547495489 99.0
57.552419345 129.0
57.557343201 124.0
57.562267057 133.0
57.567190913 140.0
57.572114769 130.0
57.577038625 121.0
57.581962481 140.0
57.586886337 124.0
57.591810193 114.0
57.596734049 140.0
57.601657905 137.0
57.606581761 124.0
57.611505617 139.0
57.616429473 108.0
57.621353329 128.0
57.626277185 121.0
57.631201041 111.0
57.636124897 123.0
57.641048753 114.0
57.645972609 125.0
57.650896465 99.0
57.655820321 110.0
57.660744177 144.0
57.665668033 104.0
57.670591889 134.0
57.675515745 111.0
57.680439601 139.0
57.685363457 119.0
57.690287313 97.0
57.695211169 121.0
57.700135025 132.0
57.705058881 112.0
57.709982737 127.0
57.714906593 143.0
57.719830449 107.0
57.724754305 126.0
57.729678161 128.0
57.734602017 129.0
57.739525873 120.0
57.744449729 118.0
57.749373585 152.0
57.754297441 117.0
57.759221297 111.0
57.764145153 123.0
57.769069009 132.0
57.773992865 123.0
57.778916721 119.0
57.783840578 109.0
57.788764434 125.0
57.793688290 126.0
57.798612146 118.0
57.803536002 126.0
57.808459858 116.0
57.813383714 143.0
57.818307570 112.0
57.823231426 118.0
57.828155282 133.0
57.833079138 111.0
57.838002994 125.0
57.842926850 155.0
57.847850706 122.0
57.852774562 115.0
57.857698418 146.0
57.862622274 141.0
57.867546130 135.0
57.872469986 117.0
57.877393842 128.0
57.882317698 120.0
57.887241554 121.0
57.892165410 115.0
57.897089266 131.0
57.902013122 147.0
57.906936978 134.0
57.911860834 134.0
57.916784690 129.0
57.921708546 138.0
57.926632402 156.0
57.931556258 111.0
57.936480114 175.0
57.941403970 125.0
57.946327826 128.0
57.951251682 126.0
57.956175538 128.0
57.961099394 144.0
57.966023250 126.0
57.970947106 134.0
57.975870962 116.0
57.980794818 153.0
57.985718674 125.0
57.990642530 142.0
57.995566386 111.0
58.000490242 153.0
58.005414098 133.0
58.010337954 123.0
58.015261810 139.0
58.020185666 114.0
58.025109522 130.0
58.030033378 124.0
58.034957234 134.0
58.039881090 140.0
58.044804946 119.0
58.049728802 120.0
58.054652658 126.0
58.059576514 135.0
58.064500370 133.0
58.069424226 133.0
58.074348082 127.0
58.079271938 136.0
58.084195794 136.0
58.089119650 117.0
58.094043506 106.0
58.098967362 138.0
58.103891218 119.0
58.108815074 124.0
58.113738930 123.0
58.118662786 116.0
58.123586642 120.0
58.128510498 123.0
58.133434354 115.0
58.138358210 132.0
58.143282066 140.0
58.148205922 108.0
58.153129779 109.0
58.158053635 132.0
58.162977491 107.0
58.167901347 139.0
58.172825203 115.0
58.177749059 113.0
58.182672915 118.0
58.187596771 119.0
58.192520627 129.0
58.197444483 127.0
58.202368339 131.0
58.207292195 111.0
58.212216051 129.0
58.217139907 112.0
58.222063763 122.0
58.226987619 124.0
58.231911475 122.0
58.236835331 150.0
58.241759187 124.0
58.246683043 126.0
58.251606899 105.0
58.256530755 105.0
58.261454611 102.0
58.266378467 144.0
58.271302323 125.0
58.276226179 120.0
58.281150035 105.0
58.286073891 117.0
58.290997747 131.0
58.295921603 114.0
58.300845459 112.0
58.305769315 130.0
58.310693171 127.0
58.315617027 112.0
58.320540883 108.0
58.325464739 124.0
58.330388595 116.0
58.335312451 115.0
58.340236307 133.0
58.345160163 110.0
58.350084019 114.0
58.355007875 124.0
58.359931731 114.0
58.364855587 131.0
58.369779443 114.0
58.374703299 119.0
58.379627155 134.0
58.384551011 125.0
58.389474867 132.0
58.394398723 124.0
58.399322579 121.0
58.404246435 115.0
58.409170291 135.0
58.414094147 115.0
58.419018003 139.0
58.423941859 102.0
58.428865715 133.0
58.433789571 119.0
58.438713427 128.0
58.443637283 108.0
58.448561139 125.0
58.453484995 106.0
58.458408851 123.0
58.463332707 126.0
58.468256563 133.0
58.473180419 95.0
58.478104275 114.0
58.483028131 104.0
58.487951987 136.0
58.492875843 130.0
58.497799699 104.0
58.502723555 125.0
58.507647411 117.0
58.512571267 116.0
58.517495123 109.0
58.522418980 97.0
58.527342836 129.0
58.532266692 134.0
58.537190548 126.0
58.542114404 105.0
58.547038260 117.0
58.551962116 104.0
58.556885972 108.0
58.561809828 124.0
58.566733684 114.0
58.571657540 111.0
58.576581396 109.0
58.581505252 104.0
58.586429108 111.0
58.591352964 113.0
58.596276820 130.0
58.601200676 106.0
58.606124532 121.0
58.611048388 103.0
58.615972244 135.0
58.620896100 128.0
58.625819956 128.0
58.630743812 113.0
58.635667668 116.0
58.640591524 115.0
58.645515380 125.0
58.650439236 123.0
58.655363092 114.0
58.660286948 140.0
58.665210804 121.0
58.670134660 117.0
58.675058516 122.0
58.679982372 135.0
58.684906228 120.0
58.689830084 113.0
58.694753940 126.0
58.699677796 136.0
58.704601652 122.0
58.709525508 106.0
58.714449364 131.0
58.719373220 119.0
58.724297076 118.0
58.729220932 119.0
58.734144788 120.0
58.739068644 137.0
58.743992500 120.0
58.748916356 125.0
58.753840212 108.0
58.758764068 137.0
58.763687924 107.0
58.768611780 115.0
58.773535636 115.0
58.778459492 124.0
58.783383348 116.0
58.788307204 108.0
58.793231060 123.0
58.798154916 116.0
58.803078772 129.0
58.808002628 117.0
58.812926484 110.0
58.817850340 139.0
58.822774196 115.0
58.827698052 109.0
58.832621908 138.0
58.837545764 124.0
58.842469620 121.0
58.847393476 131.0
58.852317332 96.0
58.857241188 132.0
58.862165044 112.0
58.867088900 99.0
58.872012756 113.0
58.876936612 136.0
58.881860468 119.0
58.886784324 124.0
58.891708181 99.0
58.896632037 107.0
58.901555893 130.0
58.906479749 108.0
58.911403605 128.0
58.916327461 120.0
58.921251317 94.0
58.926175173 116.0
58.931099029 122.0
58.936022885 118.0
58.940946741 129.0
58.945870597 114.0
58.950794453 141.0
58.955718309 125.0
58.960642165 111.0
58.965566021 138.0
58.970489877 120.0
58.975413733 127.0
58.980337589 132.0
58.985261445 117.0
58.990185301 132.0
58.995109157 142.0
59.000033013 108.0
59.004956869 135.0
59.009880725 114.0
59.014804581 104.0
59.019728437 120.0
59.024652293 132.0
59.029576149 106.0
59.034500005 109.0
59.039423861 98.0
59.044347717 116.0
59.049271573 144.0
59.054195429 142.0
59.059119285 113.0
59.064043141 117.0
59.068966997 121.0
59.073890853 121.0
59.078814709 124.0
59.083738565 119.0
59.088662421 114.0
59.093586277 91.0
59.098510133 125.0
59.103433989 105.0
59.108357845 121.0
59.113281701 130.0
59.118205557 117.0
59.123129413 124.0
59.128053269 134.0
59.132977125 100.0
59.137900981 111.0
59.142824837 121.0
59.147748693 119.0
59.152672549 105.0
59.157596405 120.0
59.162520261 120.0
59.167444117 113.0
59.172367973 121.0
59.177291829 114.0
59.182215685 103.0
59.187139541 120.0
59.192063397 121.0
59.196987253 136.0
59.201911109 137.0
59.206834965 96.0
59.211758821 104.0
59.216682677 112.0
59.221606533 113.0
59.226530389 121.0
59.231454245 142.0
59.236378101 131.0
59.241301957 147.0
59.246225813 106.0
59.251149669 139.0
59.256073525 118.0
59.260997382 108.0
59.265921238 139.0
59.270845094 119.0
59.275768950 109.0
59.280692806 124.0
59.285616662 120.0
59.290540518 112.0
59.295464374 116.0
59.300388230 120.0
59.305312086 129.0
59.310235942 109.0
59.315159798 116.0
59.320083654 124.0
59.325007510 116.0
59.329931366 127.0
59.334855222 116.0
59.339779078 133.0
59.344702934 114.0
59.349626790 102.0
59.354550646 110.0
59.359474502 122.0
59.364398358 116.0
59.369322214 102.0
59.374246070 133.0
59.379169926 115.0
59.384093782 104.0
59.389017638 103.0
59.393941494 120.0
59.398865350 133.0
59.403789206 127.0
59.408713062 101.0
59.413636918 158.0
59.418560774 123.0
59.423484630 103.0
59.428408486 109.0
59.433332342 105.0
59.438256198 122.0
59.443180054 141.0
59.448103910 150.0
59.453027766 111.0
59.457951622 137.0
59.462875478 123.0
59.467799334 111.0
59.472723190 127.0
59.477647046 123.0
59.482570902 129.0
59.487494758 131.0
59.492418614 121.0
59.497342470 136.0
59.502266326 112.0
59.507190182 127.0
59.512114038 106.0
59.517037894 134.0
59.521961750 113.0
59.526885606 99.0
59.531809462 118.0
59.536733318 114.0
59.541657174 110.0
59.546581030 123.0
59.551504886 120.0
59.556428742 115.0
59.561352598 114.0
59.566276454 105.0
59.571200310 118.0
59.576124166 127.0
59.581048022 131.0
59.585971878 119.0
59.590895734 115.0
59.595819590 125.0
59.600743446 119.0
59.605667302 125.0
59.610591158 128.0
59.615515014 112.0
59.620438870 142.0
59.625362726 137.0
59.630286582 110.0
59.635210439 133.0
59.640134295 135.0
59.645058151 120.0
59.649982007 101.0
59.654905863 102.0
59.659829719 118.0
59.664753575 117.0
59.669677431 113.0
59.674601287 93.0
59.679525143 140.0
59.684448999 118.0
59.689372855 117.0
59.694296711 116.0
59.699220567 106.0
59.704144423 134.0
59.709068279 119.0
59.713992135 123.0
59.718915991 101.0
59.723839847 99.0
59.728763703 112.0
59.733687559 109.0
59.738611415 106.0
59.743535271 120.0
59.748459127 122.0
59.753382983 106.0
59.758306839 134.0
59.763230695 131.0
59.768154551 129.0
59.773078407 133.0
59.778002263 125.0
59.782926119 141.0
59.787849975 128.0
59.792773831 125.0
59.797697687 126.0
59.802621543 127.0
59.807545399 133.0
59.812469255 98.0
59.817393111 143.0
59.822316967 139.0
59.827240823 129.0
59.832164679 122.0
59.837088535 112.0
59.842012391 134.0
59.846936247 116.0
59.851860103 133.0
59.856783959 105.0
59.861707815 113.0
59.866631671 140.0
59.871555527 130.0
59.876479383 133.0
59.881403239 123.0
59.886327095 118.0
59.891250951 120.0
59.896174807 127.0
59.901098663 144.0
59.906022519 125.0
59.910946375 99.0
59.915870231 121.0
59.920794087 118.0
59.925717943 129.0
59.930641799 133.0
59.935565655 137.0
59.940489511 113.0
59.945413367 114.0
59.950337223 116.0
59.955261079 127.0
59.960184935 108.0
59.965108791 127.0
59.970032647 132.0
59.974956503 123.0
59.979880359 140.0
59.984804215 116.0
59.989728071 101.0
59.994651927 116.0
59.999575783 105.0
60.004499640 135.0
60.009423496 135.0
60.014347352 112.0
60.019271208 132.0
60.024195064 142.0
60.029118920 121.0
60.034042776 109.0
60.038966632 112.0
60.043890488 107.0
60.048814344 126.0
60.053738200 127.0
60.058662056 138.0
60.063585912 126.0
60.068509768 134.0
60.073433624 130.0
60.078357480 127.0
60.083281336 118.0
60.088205192 132.0
60.093129048 141.0
60.098052904 123.0
60.102976760 117.0
60.107900616 131.0
60.112824472 132.0
60.117748328 113.0
60.122672184 118.0
60.127596040 127.0
60.132519896 122.0
60.137443752 132.0
60.142367608 114.0
60.147291464 94.0
60.152215320 141.0
60.157139176 123.0
60.162063032 114.0
60.166986888 131.0
60.171910744 117.0
60.176834600 123.0
60.181758456 119.0
60.186682312 132.0
60.191606168 138.0
60.196530024 96.0
60.201453880 110.0
60.206377736 125.0
60.211301592 120.0
60.216225448 122.0
60.221149304 131.0
60.226073160 129.0
60.230997016 133.0
60.235920872 149.0
60.240844728 145.0
60.245768584 116.0
60.250692440 140.0
60.255616296 135.0
60.260540152 132.0
60.265464008 151.0
60.270387864 126.0
60.275311720 119.0
60.280235576 117.0
60.285159432 121.0
60.290083288 136.0
60.295007144 145.0
60.299931000 126.0
60.304854856 165.0
60.309778712 136.0
60.314702568 136.0
60.319626424 128.0
60.324550280 153.0
60.329474136 132.0
60.334397992 134.0
60.339321848 122.0
60.344245704 140.0
60.349169560 131.0
60.354093416 135.0
60.359017272 135.0
60.363941128 126.0
60.368864984 125.0
60.373788841 137.0
60.378712697 124.0
60.383636553 135.0
60.388560409 129.0
60.393484265 125.0
60.398408121 127.0
60.403331977 147.0
60.408255833 140.0
60.413179689 140.0
60.418103545 128.0
60.423027401 125.0
60.427951257 131.0
60.432875113 144.0
60.437798969 124.0
60.442722825 127.0
60.447646681 127.0
60.452570537 121.0
60.457494393 148.0
60.462418249 142.0
60.467342105 137.0
60.472265961 151.0
60.477189817 112.0
60.482113673 152.0
60.487037529 110.0
60.491961385 125.0
60.496885241 128.0
60.501809097 131.0
60.506732953 127.0
60.511656809 143.0
60.516580665 114.0
60.521504521 116.0
60.526428377 141.0
60.531352233 136.0
60.536276089 138.0
60.541199945 155.0
60.546123801 147.0
60.551047657 145.0
60.555971513 132.0
60.560895369 132.0
60.565819225 147.0
60.570743081 129.0
60.575666937 136.0
60.580590793 127.0
60.585514649 129.0
60.590438505 142.0
60.595362361 128.0
60.600286217 134.0
60.605210073 123.0
60.610133929 124.0
60.615057785 132.0
60.619981641 140.0
60.624905497 131.0
60.629829353 144.0
60.634753209 132.0
60.639677065 146.0
60.644600921 133.0
60.649524777 151.0
60.654448633 131.0
60.659372489 150.0
60.664296345 126.0
60.669220201 131.0
60.674144057 137.0
60.679067913 128.0
60.683991769 153.0
60.688915625 136.0
60.693839481 145.0
60.698763337 145.0
60.703687193 154.0
60.708611049 149.0
60.713534905 154.0
60.718458761 151.0
60.723382617 194.0
60.728306473 142.0
60.733230329 169.0
60.738154185 153.0
60.743078042 174.0
60.748001898 187.0
60.752925754 192.0
60.757849610 194.0
60.762773466 223.0
60.767697322 197.0
60.772621178 277.0
60.777545034 260.0
60.782468890 300.0
60.787392746 324.0
60.792316602 374.0
60.797240458 408.0
60.802164314 470.0
60.807088170 531.0
60.812012026 618.0
60.816935882 644.0
60.821859738 804.0
60.826783594 888.0
60.831707450 956.0
60.836631306 1026.0
60.841555162 1019.0
60.846479018 1017.0
60.851402874 1041.0
60.856326730 1010.0
60.861250586 1007.0
60.866174442 935.0
60.871098298 861.0
60.876022154 811.0
60.880946010 754.0
60.885869866 715.0
60.890793722 654.0
60.895717578 629.0
60.900641434 559.0
60.905565290 543.0
60.910489146 539.0
60.915413002 527.0
60.920336858 469.0
60.925260714 482.0
60.930184570 468.0
60.935108426 488.0
60.940032282 433.0
60.944956138 419.0
60.949879994 359.0
60.954803850 355.0
60.959727706 306.0
60.964651562 304.0
60.969575418 281.0
60.974499274 257.0
60.979423130 294.0
60.984346986 231.0
60.989270842 182.0
60.994194698 205.0
60.999118554 200.0
61.004042410 205.0
61.008966266 178.0
61.013890122 160.0
61.018813978 173.0
61.023737834 191.0
61.028661690 179.0
61.033585546 160.0
61.038509402 155.0
61.043433258 169.0
61.048357114 170.0
61.053280970 167.0
61.058204826 174.0
61.063128682 145.0
61.068052538 160.0
61.072976394 178.0
61.077900250 176.0
61.082824106 138.0
61.087747962 152.0
61.092671818 142.0
61.097595674 146.0
61.102519530 148.0
61.107443386 147.0
61.112367243 137.0
61.117291099 137.0
61.122214955 148.0
61.127138811 148.0
61.132062667 145.0
61.136986523 131.0
61.141910379 147.0
61.146834235 158.0
61.151758091 154.0
61.156681947 159.0
61.161605803 125.0
61.166529659 148.0
61.171453515 159.0
61.176377371 154.0
61.181301227 142.0
61.186225083 177.0
61.191148939 132.0
61.196072795 141.0
61.200996651 133.0
61.205920507 168.0
61.210844363 131.0
61.215768219 153.0
61.220692075 163.0
61.225615931 136.0
61.230539787 138.0
61.235463643 118.0
61.240387499 148.0
61.245311355 149.0
61.250235211 130.0
61.255159067 148.0
61.260082923 132.0
61.265006779 141.0
61.269930635 135.0
61.274854491 137.0
61.279778347 151.0
61.284702203 129.0
61.289626059 123.0
61.294549915 132.0
61.299473771 127.0
61.304397627 152.0
61.309321483 137.0
61.314245339 133.0
61.319169195 129.0
61.324093051 134.0
61.329016907 130.0
61.333940763 101.0
61.338864619 132.0
61.343788475 132.0
61.348712331 133.0
61.353636187 117.0
61.358560043 171.0
61.363483899 132.0
61.368407755 139.0
61.373331611 132.0
61.378255467 127.0
61.383179323 145.0
61.388103179 126.0
61.393027035 133.0
61.397950891 133.0
61.402874747 155.0
61.407798603 109.0
61.412722459 128.0
61.417646315 124.0
61.422570171 128.0
61.427494027 157.0
61.432417883 137.0
61.437341739 142.0
61.442265595 135.0
61.447189451 153.0
61.452113307 143.0
61.457037163 145.0
61.461961019 130.0
61.466884875 125.0
61.471808731 120.0
61.476732587 116.0
61.481656443 124.0
61.486580300 126.0
61.491504156 120.0
61.496428012 125.0
61.501351868 112.0
61.506275724 122.0
61.511199580 144.0
61.516123436 129.0
61.521047292 150.0
61.525971148 147.0
61.530895004 140.0
61.535818860 154.0
61.540742716 132.0
61.545666572 118.0
61.550590428 142.0
61.555514284 130.0
61.560438140 119.0
61.565361996 135.0
61.570285852 120.0
61.575209708 155.0
61.580133564 129.0
61.585057420 114.0
61.589981276 122.0
61.594905132 144.0
61.599828988 130.0
61.604752844 130.0
61.609676700 159.0
61.614600556 137.0
61.619524412 125.0
61.624448268 117.0
61.629372124 115.0
61.634295980 142.0
61.639219836 120.0
61.644143692 114.0
61.649067548 122.0
61.653991404 112.0
61.658915260 131.0
61.663839116 126.0
61.668762972 144.0
61.673686828 107.0
61.678610684 126.0
61.683534540 149.0
61.688458396 126.0
61.693382252 116.0
61.698306108 138.0
61.703229964 124.0
61.708153820 128.0
61.713077676 139.0
61.718001532 136.0
61.722925388 138.0
61.727849244 135.0
61.732773100 142.0
61.737696956 154.0
61.742620812 143.0
61.747544668 121.0
61.752468524 134.0
61.757392380 120.0
61.762316236 137.0
61.767240092 117.0
61.772163948 141.0
61.777087804 118.0
61.782011660 135.0
61.786935516 128.0
61.791859372 132.0
61.796783228 137.0
61.801707084 140.0
61.806630940 151.0
61.811554796 125.0
61.816478652 129.0
61.821402508 128.0
61.826326364 131.0
61.831250220 125.0
61.836174076 131.0
61.841097932 139.0
61.846021788 123.0
61.850945644 122.0
61.855869501 127.0
61.860793357 134.0
61.865717213 121.0
61.870641069 128.0
61.875564925 136.0
61.880488781 118.0
61.885412637 147.0
61.890336493 133.0
61.895260349 148.0
61.900184205 133.0
61.905108061 123.0
61.910031917 139.0
61.914955773 133.0
61.919879629 138.0
61.924803485 137.0
61.929727341 113.0
61.934651197 105.0
61.939575053 132.0
61.944498909 122.0
61.949422765 123.0
61.954346621 126.0
61.959270477 155.0
61.964194333 140.0
61.969118189 152.0
61.974042045 131.0
61.978965901 138.0
61.983889757 137.0
61.988813613 135.0
61.993737469 132.0
61.998661325 141.0
62.003585181 135.0
62.008509037 138.0
62.013432893 148.0
62.018356749 122.0
62.023280605 148.0
62.028204461 133.0
62.033128317 139.0
62.038052173 133.0
62.042976029 137.0
62.047899885 129.0
62.052823741 121.0
62.057747597 110.0
62.062671453 159.0
62.067595309 147.0
62.072519165 144.0
62.077443021 122.0
62.082366877 150.0
62.087290733 150.0
62.092214589 140.0
62.097138445 141.0
62.102062301 144.0
62.106986157 143.0
62.111910013 119.0
62.116833869 139.0
62.121757725 122.0
62.126681581 135.0
62.131605437 127.0
62.136529293 121.0
62.141453149 142.0
62.146377005 135.0
62.151300861 127.0
62.156224717 126.0
62.161148573 129.0
62.166072429 116.0
62.170996285 131.0
62.175920141 125.0
62.180843997 141.0
62.185767853 125.0
62.190691709 127.0
62.195615565 122.0
62.200539421 117.0
62.205463277 132.0
62.210387133 146.0
62.215310989 116.0
62.220234845 127.0
62.225158702 141.0
62.230082558 135.0
62.235006414 130.0
62.239930270 132.0
62.244854126 105.0
62.249777982 113.0
62.254701838 133.0
62.259625694 131.0
62.264549550 153.0
62.269473406 141.0
62.274397262 139.0
62.279321118 147.0
62.284244974 120.0
62.289168830 130.0
62.294092686 142.0
62.299016542 116.0
62.303940398 125.0
62.308864254 127.0
62.313788110 121.0
62.318711966 123.0
62.323635822 135.0
62.328559678 129.0
62.333483534 150.0
62.338407390 155.0
62.343331246 156.0
62.348255102 122.0
62.353178958 123.0
62.358102814 114.0
62.363026670 124.0
62.367950526 129.0
62.372874382 130.0
62.377798238 141.0
62.382722094 130.0
62.387645950 168.0
62.392569806 139.0
62.397493662 129.0
62.402417518 116.0
62.407341374 128.0
62.412265230 139.0
62.417189086 131.0
62.422112942 142.0
62.427036798 155.0
62.431960654 135.0
62.436884510 142.0
62.441808366 142.0
62.446732222 141.0
62.451656078 148.0
62.456579934 144.0
62.461503790 164.0
62.466427646 109.0
62.471351502 128.0
62.476275358 171.0
62.481199214 127.0
62.486123070 133.0
62.491046926 122.0
62.495970782 129.0
62.500894638 144.0
62.505818494 127.0
62.510742350 128.0
62.515666206 132.0
62.520590062 128.0
62.525513918 129.0
62.530437774 146.0
62.535361630 144.0
62.540285486 137.0
62.545209342 125.0
62.550133198 129.0
62.555057054 127.0
62.559980910 139.0
62.564904766 134.0
62.569828622 150.0
62.574752478 134.0
62.579676334 148.0
62.584600190 145.0
62.589524046 136.0
62.594447903 130.0
62.599371759 137.0
62.604295615 131.0
62.609219471 123.0
62.614143327 138.0
62.619067183 128.0
62.623991039 127.0
62.628914895 119.0
62.633838751 132.0
62.638762607 120.0
62.643686463 142.0
62.648610319 149.0
62.653534175 101.0
62.658458031 128.0
62.663381887 143.0
62.668305743 134.0
62.673229599 122.0
62.678153455 125.0
62.683077311 117.0
62.688001167 132.0
62.692925023 134.0
62.697848879 123.0
62.702772735 137.0
62.707696591 130.0
62.712620447 161.0
62.717544303 152.0
62.722468159 127.0
62.727392015 137.0
62.732315871 136.0
62.737239727 124.0
62.742163583 133.0
62.747087439 120.0
62.752011295 129.0
62.756935151 145.0
62.761859007 150.0
62.766782863 134.0
62.771706719 141.0
62.776630575 141.0
62.781554431 141.0
62.786478287 126.0
62.791402143 163.0
62.796325999 134.0
62.801249855 153.0
62.806173711 126.0
62.811097567 142.0
62.816021423 150.0
62.820945279 155.0
62.825869135 150.0
62.830792991 153.0
62.835716847 129.0
62.840640703 143.0
62.845564559 155.0
62.850488415 139.0
62.855412271 142.0
62.860336127 163.0
62.865259983 154.0
62.870183839 141.0
62.875107695 148.0
62.880031551 139.0
62.884955407 170.0
62.889879263 172.0
62.894803119 133.0
62.899726975 165.0
62.904650831 137.0
62.909574687 148.0
62.914498543 148.0
62.919422399 150.0
62.924346255 127.0
62.929270111 127.0
62.934193967 139.0
62.939117823 141.0
62.944041679 128.0
62.948965535 155.0
62.953889391 142.0
62.958813247 134.0
62.963737104 154.0
62.968660960 148.0
62.973584816 157.0
62.978508672 149.0
62.983432528 151.0
62.988356384 132.0
62.993280240 133.0
62.998204096 144.0
63.003127952 139.0
63.008051808 161.0
63.012975664 130.0
63.017899520 119.0
63.022823376 141.0
63.027747232 138.0
63.032671088 134.0
63.037594944 142.0
63.042518800 155.0
63.047442656 124.0
63.052366512 159.0
63.057290368 143.0
63.062214224 140.0
63.067138080 142.0
63.072061936 144.0
63.076985792 139.0
63.081909648 157.0
63.086833504 137.0
63.091757360 149.0
63.096681216 151.0
63.101605072 160.0
63.106528928 139.0
63.111452784 151.0
63.116376640 144.0
63.121300496 156.0
63.126224352 130.0
63.131148208 157.0
63.136072064 144.0
63.140995920 178.0
63.145919776 140.0
63.150843632 136.0
63.155767488 144.0
63.160691344 139.0
63.165615200 144.0
63.170539056 125.0
63.175462912 144.0
63.180386768 144.0
63.185310624 142.0
63.190234480 147.0
63.195158336 144.0
63.200082192 135.0
63.205006048 148.0
63.209929904 162.0
63.214853760 159.0
63.219777616 147.0
63.224701472 157.0
63.229625328 161.0
63.234549184 177.0
63.239473040 143.0
63.244396896 179.0
63.249320752 149.0
63.254244608 123.0
63.259168464 154.0
63.264092320 151.0
63.269016176 141.0
63.273940032 129.0
63.278863888 157.0
63.283787744 140.0
63.288711600 145.0
63.293635456 156.0
63.298559312 156.0
63.303483168 165.0
63.308407024 160.0
63.313330880 152.0
63.318254736 164.0
63.323178592 157.0
63.328102448 155.0
63.333026304 154.0
63.337950161 150.0
63.342874017 146.0
63.347797873 148.0
63.352721729 145.0
63.357645585 162.0
63.362569441 143.0
63.367493297 155.0
63.372417153 152.0
63.377341009 137.0
63.382264865 159.0
63.387188721 154.0
63.392112577 144.0
63.397036433 166.0
63.401960289 145.0
63.406884145 151.0
63.411808001 160.0
63.416731857 149.0
63.421655713 156.0
63.426579569 138.0
63.431503425 154.0
63.436427281 155.0
63.441351137 144.0
63.446274993 158.0
63.451198849 149.0
63.456122705 144.0
63.461046561 162.0
63.465970417 168.0
63.470894273 160.0
63.475818129 154.0
63.480741985 156.0
63.485665841 148.0
63.490589697 149.0
63.495513553 155.0
63.500437409 150.0
63.505361265 171.0
63.510285121 170.0
63.515208977 153.0
63.520132833 147.0
63.525056689 142.0
63.529980545 127.0
63.534904401 171.0
63.539828257 162.0
63.544752113 163.0
63.549675969 160.0
63.554599825 159.0
63.559523681 143.0
63.564447537 170.0
63.569371393 168.0
63.574295249 165.0
63.579219105 178.0
63.584142961 162.0
63.589066817 164.0
63.593990673 150.0
63.598914529 167.0
63.603838385 154.0
63.608762241 157.0
63.613686097 201.0
63.618609953 174.0
63.623533809 167.0
63.628457665 170.0
63.633381521 182.0
63.638305377 160.0
63.643229233 139.0
63.648153089 168.0
63.653076945 164.0
63.658000801 170.0
63.662924657 188.0
63.667848513 146.0
63.672772369 145.0
63.677696225 181.0
63.682620081 155.0
63.687543937 176.0
63.692467793 203.0
63.697391649 195.0
63.702315505 205.0
63.707239362 151.0
63.712163218 170.0
63.717087074 171.0
63.722010930 177.0
63.726934786 173.0
63.731858642 174.0
63.736782498 171.0
63.741706354 176.0
63.746630210 176.0
63.751554066 166.0
63.756477922 165.0
63.761401778 183.0
63.766325634 163.0
63.771249490 154.0
63.776173346 182.0
63.781097202 169.0
63.786021058 167.0
63.790944914 192.0
63.795868770 177.0
63.800792626 198.0
63.805716482 198.0
63.810640338 179.0
63.815564194 169.0
63.820488050 166.0
63.825411906 188.0
63.830335762 209.0
63.835259618 157.0
63.840183474 157.0
63.845107330 188.0
63.850031186 181.0
63.854955042 173.0
63.859878898 191.0
63.864802754 186.0
63.869726610 193.0
63.874650466 180.0
63.879574322 188.0
63.884498178 171.0
63.889422034 186.0
63.894345890 204.0
63.899269746 181.0
63.904193602 193.0
63.909117458 170.0
63.914041314 191.0
63.918965170 175.0
63.923889026 197.0
63.928812882 207.0
63.933736738 180.0
63.938660594 184.0
63.943584450 165.0
63.948508306 174.0
63.953432162 162.0
63.958356018 204.0
63.963279874 204.0
63.968203730 190.0
63.973127586 211.0
63.978051442 186.0
63.982975298 185.0
63.987899154 205.0
63.992823010 209.0
63.997746866 179.0
64.002670722 217.0
64.007594578 200.0
64.012518434 199.0
64.017442290 203.0
64.022366146 228.0
64.027290002 189.0
64.032213858 215.0
64.037137714 206.0
64.042061570 182.0
64.046985426 210.0
64.051909282 230.0
64.056833138 225.0
64.061756994 204.0
64.066680850 218.0
64.071604706 227.0
64.076528563 237.0
64.081452419 241.0
64.086376275 241.0
64.091300131 205.0
64.096223987 207.0
64.101147843 206.0
64.106071699 235.0
64.110995555 231.0
64.115919411 231.0
64.120843267 215.0
64.125767123 255.0
64.130690979 232.0
64.135614835 243.0
64.140538691 269.0
64.145462547 264.0
64.150386403 256.0
64.155310259 231.0
64.160234115 245.0
64.165157971 257.0
64.170081827 236.0
64.175005683 219.0
64.179929539 231.0
64.184853395 229.0
64.189777251 242.0
64.194701107 265.0
64.199624963 275.0
64.204548819 271.0
64.209472675 281.0
64.214396531 259.0
64.219320387 292.0
64.224244243 278.0
64.229168099 267.0
64.234091955 285.0
64.239015811 245.0
64.243939667 303.0
64.248863523 288.0
64.253787379 278.0
64.258711235 285.0
64.263635091 287.0
64.268558947 293.0
64.273482803 285.0
64.278406659 308.0
64.283330515 304.0
64.288254371 303.0
64.293178227 298.0
64.298102083 304.0
64.303025939 298.0
64.307949795 299.0
64.312873651 345.0
64.317797507 339.0
64.322721363 328.0
64.327645219 314.0
64.332569075 365.0
64.337492931 362.0
64.342416787 340.0
64.347340643 360.0
64.352264499 364.0
64.357188355 330.0
64.362112211 350.0
64.367036067 350.0
64.371959923 390.0
64.376883779 401.0
64.381807635 393.0
64.386731491 377.0
64.391655347 403.0
64.396579203 406.0
64.401503059 435.0
64.406426915 418.0
64.411350771 396.0
64.416274627 396.0
64.421198483 420.0
64.426122339 434.0
64.431046195 462.0
64.435970051 428.0
64.440893907 462.0
64.445817764 443.0
64.450741620 440.0
64.455665476 441.0
64.460589332 465.0
64.465513188 502.0
64.470437044 534.0
64.475360900 500.0
64.480284756 525.0
64.485208612 545.0
64.490132468 491.0
64.495056324 538.0
64.499980180 527.0
64.504904036 548.0
64.509827892 555.0
64.514751748 554.0
64.519675604 639.0
64.524599460 609.0
64.529523316 645.0
64.534447172 601.0
64.539371028 641.0
64.544294884 634.0
64.549218740 636.0
64.554142596 644.0
64.559066452 692.0
64.563990308 752.0
64.568914164 744.0
64.573838020 756.0
64.578761876 756.0
64.583685732 817.0
64.588609588 818.0
64.593533444 884.0
64.598457300 836.0
64.603381156 854.0
64.608305012 932.0
64.613228868 895.0
64.618152724 991.0
64.623076580 934.0
64.628000436 965.0
64.632924292 1007.0
64.637848148 1081.0
64.642772004 1055.0
64.647695860 1099.0
64.652619716 1108.0
64.657543572 1192.0
64.662467428 1250.0
64.667391284 1301.0
64.672315140 1345.0
64.677238996 1395.0
64.682162852 1479.0
64.687086708 1424.0
64.692010564 1533.0
64.696934420 1632.0
64.701858276 1680.0
64.706782132 1735.0
64.711705988 1764.0
64.716629844 1858.0
64.721553700 1916.0
64.726477556 1944.0
64.731401412 2013.0
64.736325268 2198.0
64.741249124 2289.0
64.746172980 2230.0
64.751096836 2383.0
64.756020692 2414.0
64.760944548 2477.0
64.765868404 2636.0
64.770792260 2706.0
64.775716116 2746.0
64.780639972 2762.0
64.785563828 2955.0
64.790487684 2950.0
64.795411540 3028.0
64.800335396 3119.0
64.805259252 3145.0
64.810183108 3205.0
64.815106965 3296.0
64.820030821 3246.0
64.824954677 3403.0
64.829878533 3427.0
64.834802389 3359.0
64.839726245 3406.0
64.844650101 3383.0
64.849573957 3425.0
64.854497813 3432.0
64.859421669 3425.0
64.864345525 3524.0
64.869269381 3612.0
64.874193237 3580.0
64.879117093 3482.0
64.884040949 3508.0
64.888964805 3460.0
64.893888661 3366.0
64.898812517 3539.0
64.903736373 3331.0
64.908660229 3305.0
64.913584085 3227.0
64.918507941 3192.0
64.923431797 3226.0
64.928355653 3241.0
64.933279509 3130.0
64.938203365 3163.0
64.943127221 3094.0
64.948051077 2990.0
64.952974933 2959.0
64.957898789 3026.0
64.962822645 2978.0
64.967746501 2926.0
64.972670357 2832.0
64.977594213 2806.0
64.982518069 2732.0
64.987441925 2645.0
64.992365781 2770.0
64.997289637 2665.0
65.002213493 2585.0
65.007137349 2629.0
65.012061205 2594.0
65.016985061 2664.0
65.021908917 2405.0
65.026832773 2422.0
65.031756629 2420.0
65.036680485 2275.0
65.041604341 2249.0
65.046528197 2150.0
65.051452053 2120.0
65.056375909 2062.0
65.061299765 2019.0
65.066223621 1918.0
65.071147477 1928.0
65.076071333 1904.0
65.080995189 1956.0
65.085919045 1813.0
65.090842901 1808.0
65.095766757 1722.0
65.100690613 1633.0
65.105614469 1607.0
65.110538325 1449.0
65.115462181 1467.0
65.120386037 1403.0
65.125309893 1357.0
65.130233749 1370.0
65.135157605 1314.0
65.140081461 1323.0
65.145005317 1267.0
65.149929173 1181.0
65.154853029 1159.0
65.159776885 1098.0
65.164700741 1048.0
65.169624597 1000.0
65.174548453 980.0
65.179472309 941.0
65.184396165 991.0
65.189320022 879.0
65.194243878 874.0
65.199167734 861.0
65.204091590 767.0
65.209015446 766.0
65.213939302 721.0
65.218863158 727.0
65.223787014 723.0
65.228710870 610.0
65.233634726 654.0
65.238558582 653.0
65.243482438 622.0
65.248406294 596.0
65.253330150 587.0
65.258254006 569.0
65.263177862 586.0
65.268101718 552.0
65.273025574 558.0
65.277949430 534.0
65.282873286 502.0
65.287797142 495.0
65.292720998 501.0
65.297644854 446.0
65.302568710 456.0
65.307492566 383.0
65.312416422 421.0
65.317340278 406.0
65.322264134 417.0
65.327187990 393.0
65.332111846 404.0
65.337035702 383.0
65.341959558 401.0
65.346883414 342.0
65.351807270 403.0
65.356731126 344.0
65.361654982 366.0
65.366578838 334.0
65.371502694 346.0
65.376426550 332.0
65.381350406 353.0
65.386274262 304.0
65.391198118 332.0
65.396121974 333.0
65.401045830 292.0
65.405969686 318.0
65.410893542 320.0
65.415817398 305.0
65.420741254 319.0
65.425665110 291.0
65.430588966 295.0
65.435512822 320.0
65.440436678 273.0
65.445360534 262.0
65.450284390 265.0
65.455208246 317.0
65.460132102 302.0
65.465055958 264.0
65.469979814 272.0
65.474903670 240.0
65.479827526 273.0
65.484751382 267.0
65.489675238 288.0
65.494599094 264.0
65.499522950 272.0
65.504446806 236.0
65.509370662 273.0
65.514294518 272.0
65.519218374 264.0
65.524142230 259.0
65.529066086 270.0
65.533989942 258.0
65.538913798 243.0
65.543837654 244.0
65.548761510 233.0
65.553685366 232.0
65.558609223 261.0
65.563533079 221.0
65.568456935 258.0
65.573380791 280.0
65.578304647 221.0
65.583228503 226.0
65.588152359 198.0
65.593076215 258.0
65.598000071 232.0
65.602923927 230.0
65.607847783 230.0
65.612771639 232.0
65.617695495 225.0
65.622619351 197.0
65.627543207 240.0
65.632467063 204.0
65.637390919 228.0
65.642314775 213.0
65.647238631 255.0
65.652162487 227.0
65.657086343 222.0
65.662010199 240.0
65.666934055 173.0
65.671857911 197.0
65.676781767 203.0
65.681705623 202.0
65.686629479 214.0
65.691553335 214.0
65.696477191 203.0
65.701401047 187.0
65.706324903 235.0
65.711248759 211.0
65.716172615 197.0
65.721096471 217.0
65.726020327 223.0
65.730944183 216.0
65.735868039 212.0
65.740791895 228.0
65.745715751 220.0
65.750639607 219.0
65.755563463 235.0
65.760487319 207.0
65.765411175 207.0
65.770335031 200.0
65.775258887 206.0
65.780182743 219.0
65.785106599 226.0
65.790030455 200.0
65.794954311 226.0
65.799878167 216.0
65.804802023 211.0
65.809725879 206.0
65.814649735 224.0
65.819573591 207.0
65.824497447 241.0
65.829421303 214.0
65.834345159 224.0
65.839269015 227.0
65.844192871 199.0
65.849116727 201.0
65.854040583 202.0
65.858964439 186.0
65.863888295 213.0
65.868812151 232.0
65.873736007 182.0
65.878659863 229.0
65.883583719 202.0
65.888507575 198.0
65.893431431 189.0
65.898355287 217.0
65.903279143 217.0
65.908202999 226.0
65.913126855 203.0
65.918050711 202.0
65.922974567 218.0
65.927898424 204.0
65.932822280 200.0
65.937746136 219.0
65.942669992 212.0
65.947593848 229.0
65.952517704 205.0
65.957441560 222.0
65.962365416 207.0
65.967289272 189.0
65.972213128 228.0
65.977136984 226.0
65.982060840 215.0
65.986984696 218.0
65.991908552 224.0
65.996832408 257.0
66.001756264 209.0
66.006680120 209.0
66.011603976 237.0
66.016527832 210.0
66.021451688 234.0
66.026375544 260.0
66.031299400 206.0
66.036223256 198.0
66.041147112 231.0
66.046070968 206.0
66.050994824 215.0
66.055918680 235.0
66.060842536 220.0
66.065766392 229.0
66.070690248 234.0
66.075614104 204.0
66.080537960 217.0
66.085461816 206.0
66.090385672 220.0
66.095309528 202.0
66.100233384 221.0
66.105157240 210.0
66.110081096 197.0
66.115004952 218.0
66.119928808 230.0
66.124852664 275.0
66.129776520 200.0
66.134700376 262.0
66.139624232 219.0
66.144548088 224.0
66.149471944 217.0
66.154395800 204.0
66.159319656 257.0
66.164243512 215.0
66.169167368 264.0
66.174091224 223.0
66.179015080 235.0
66.183938936 262.0
66.188862792 220.0
66.193786648 223.0
66.198710504 230.0
66.203634360 263.0
66.208558216 229.0
66.213482072 197.0
66.218405928 261.0
66.223329784 217.0
66.228253640 277.0
66.233177496 231.0
66.238101352 198.0
66.243025208 212.0
66.247949064 229.0
66.252872920 230.0
66.257796776 211.0
66.262720632 221.0
66.267644488 268.0
66.272568344 260.0
66.277492200 263.0
66.282416056 289.0
66.287339912 264.0
66.292263768 267.0
66.297187625 289.0
66.302111481 261.0
66.307035337 257.0
66.311959193 261.0
66.316883049 237.0
66.321806905 213.0
66.326730761 209.0
66.331654617 268.0
66.336578473 238.0
66.341502329 267.0
66.346426185 257.0
66.351350041 225.0
66.356273897 231.0
66.361197753 279.0
66.366121609 284.0
66.371045465 271.0
66.375969321 230.0
66.380893177 263.0
66.385817033 273.0
66.390740889 285.0
66.395664745 285.0
66.400588601 283.0
66.405512457 229.0
66.410436313 267.0
66.415360169 296.0
66.420284025 306.0
66.425207881 276.0
66.430131737 262.0
66.435055593 290.0
66.439979449 257.0
66.444903305 286.0
66.449827161 265.0
66.454751017 259.0
66.459674873 282.0
66.464598729 291.0
66.469522585 285.0
66.474446441 293.0
66.479370297 284.0
66.484294153 285.0
66.489218009 319.0
66.494141865 280.0
66.499065721 286.0
66.503989577 304.0
66.508913433 278.0
66.513837289 261.0
66.518761145 282.0
66.523685001 307.0
66.528608857 325.0
66.533532713 307.0
66.538456569 291.0
66.543380425 284.0
66.548304281 306.0
66.553228137 293.0
66.558151993 307.0
66.563075849 297.0
66.567999705 299.0
66.572923561 275.0
66.577847417 307.0
66.582771273 305.0
66.587695129 273.0
66.592618985 303.0
66.597542841 288.0
66.602466697 327.0
66.607390553 329.0
66.612314409 320.0
66.617238265 263.0
66.622162121 316.0
66.627085977 309.0
66.632009833 344.0
66.636933689 295.0
66.641857545 303.0
66.646781401 312.0
66.651705257 310.0
66.656629113 305.0
66.661552969 332.0
66.666476826 345.0
66.671400682 321.0
66.676324538 319.0
66.681248394 314.0
66.686172250 359.0
66.691096106 307.0
66.696019962 324.0
66.700943818 327.0
66.705867674 334.0
66.710791530 315.0
66.715715386 352.0
66.720639242 295.0
66.725563098 297.0
66.730486954 312.0
66.735410810 346.0
66.740334666 346.0
66.745258522 337.0
66.750182378 318.0
66.755106234 300.0
66.760030090 363.0
66.764953946 344.0
66.769877802 328.0
66.774801658 345.0
66.779725514 396.0
66.784649370 350.0
66.789573226 327.0
66.794497082 342.0
66.799420938 360.0
66.804344794 369.0
66.809268650 310.0
66.814192506 364.0
66.819116362 332.0
66.824040218 369.0
66.828964074 360.0
66.833887930 350.0
66.838811786 351.0
66.843735642 353.0
66.848659498 315.0
66.853583354 344.0
66.858507210 328.0
66.863431066 345.0
66.868354922 382.0
66.873278778 379.0
66.878202634 360.0
66.883126490 357.0
66.888050346 348.0
66.892974202 392.0
66.897898058 371.0
66.902821914 389.0
66.907745770 372.0
66.912669626 368.0
66.917593482 345.0
66.922517338 354.0
66.927441194 325.0
66.932365050 386.0
66.937288906 356.0
66.942212762 373.0
66.947136618 376.0
66.952060474 367.0
66.956984330 376.0
66.961908186 391.0
66.966832042 374.0
66.971755898 355.0
66.976679754 362.0
66.981603610 338.0
66.986527466 378.0
66.991451322 366.0
66.996375178 373.0
67.001299034 350.0
67.006222890 412.0
67.011146746 382.0
67.016070602 376.0
67.020994458 374.0
67.025918314 441.0
67.030842170 374.0
67.035766026 396.0
67.040689883 372.0
67.045613739 378.0
67.050537595 398.0
67.055461451 399.0
67.060385307 407.0
67.065309163 434.0
67.070233019 376.0
67.075156875 398.0
67.080080731 402.0
67.085004587 401.0
67.089928443 387.0
67.094852299 408.0
67.099776155 401.0
67.104700011 435.0
67.109623867 446.0
67.114547723 426.0
67.119471579 447.0
67.124395435 448.0
67.129319291 408.0
67.134243147 431.0
67.139167003 444.0
67.144090859 428.0
67.149014715 415.0
67.153938571 505.0
67.158862427 413.0
67.163786283 470.0
67.168710139 434.0
67.173633995 424.0
67.178557851 428.0
67.183481707 421.0
67.188405563 457.0
67.193329419 472.0
67.198253275 440.0
67.203177131 447.0
67.208100987 466.0
67.213024843 419.0
67.217948699 451.0
67.222872555 471.0
67.227796411 488.0
67.232720267 443.0
67.237644123 439.0
67.242567979 451.0
67.247491835 460.0
67.252415691 485.0
67.257339547 474.0
67.262263403 448.0
67.267187259 469.0
67.272111115 460.0
67.277034971 482.0
67.281958827 514.0
67.286882683 505.0
67.291806539 506.0
67.296730395 480.0
67.301654251 440.0
67.306578107 469.0
67.311501963 504.0
67.316425819 508.0
67.321349675 537.0
67.326273531 526.0
67.331197387 498.0
67.336121243 516.0
67.341045099 510.0
67.345968955 512.0
67.350892811 561.0
67.355816667 512.0
67.360740523 515.0
67.365664379 541.0
67.370588235 494.0
67.375512091 541.0
67.380435947 513.0
67.385359803 552.0
67.390283659 558.0
67.395207515 530.0
67.400131371 574.0
67.405055227 549.0
67.409979084 532.0
67.414902940 559.0
67.419826796 587.0
67.424750652 592.0
67.429674508 564.0
67.434598364 581.0
67.439522220 604.0
67.444446076 562.0
67.449369932 564.0
67.454293788 586.0
67.459217644 609.0
67.464141500 576.0
67.469065356 592.0
67.473989212 626.0
67.478913068 599.0
67.483836924 648.0
67.488760780 609.0
67.493684636 577.0
67.498608492 622.0
67.503532348 635.0
67.508456204 630.0
67.513380060 624.0
67.518303916 653.0
67.523227772 626.0
67.528151628 638.0
67.533075484 634.0
67.537999340 639.0
67.542923196 703.0
67.547847052 688.0
67.552770908 709.0
67.557694764 701.0
67.562618620 700.0
67.567542476 716.0
67.572466332 702.0
67.577390188 705.0
67.582314044 703.0
67.587237900 678.0
67.592161756 731.0
67.597085612 744.0
67.602009468 738.0
67.606933324 766.0
67.611857180 687.0
67.616781036 722.0
67.621704892 764.0
67.626628748 774.0
67.631552604 804.0
67.636476460 746.0
67.641400316 733.0
67.646324172 802.0
67.651248028 745.0
67.656171884 833.0
67.661095740 824.0
67.666019596 894.0
67.670943452 862.0
67.675867308 891.0
67.680791164 890.0
67.685715020 977.0
67.690638876 961.0
67.695562732 931.0
67.700486588 1039.0
67.705410444 1035.0
67.710334300 1037.0
67.715258156 1093.0
67.720182012 1080.0
67.725105868 1079.0
67.730029724 1119.0
67.734953580 1106.0
67.739877436 1232.0
67.744801292 1319.0
67.749725148 1308.0
67.754649004 1351.0
67.759572860 1394.0
67.764496716 1509.0
67.769420572 1580.0
67.774344428 1647.0
67.779268285 1782.0
67.784192141 1770.0
67.789115997 1889.0
67.794039853 2055.0
67.798963709 2055.0
67.803887565 2143.0
67.808811421 2197.0
67.813735277 2279.0
67.818659133 2321.0
67.823582989 2380.0
67.828506845 2488.0
67.833430701 2563.0
67.838354557 2614.0
67.843278413 2611.0
67.848202269 2595.0
67.853126125 2710.0
67.858049981 2720.0
67.862973837 2690.0
67.867897693 2674.0
67.872821549 2699.0
67.877745405 2712.0
67.882669261 2627.0
67.887593117 2572.0
67.892516973 2645.0
67.897440829 2582.0
67.902364685 2529.0
67.907288541 2563.0
67.912212397 2532.0
67.917136253 2388.0
67.922060109 2535.0
67.926983965 2623.0
67.931907821 2584.0
67.936831677 2591.0
67.941755533 2653.0
67.946679389 2662.0
67.951603245 2704.0
67.956527101 2805.0
67.961450957 2809.0
67.966374813 2872.0
67.971298669 3063.0
67.976222525 3066.0
67.981146381 3200.0
67.986070237 3381.0
67.990994093 3379.0
67.995917949 3615.0
68.000841805 3757.0
68.005765661 3963.0
68.010689517 4101.0
68.015613373 4338.0
68.020537229 4558.0
68.025461085 4809.0
68.030384941 5237.0
68.035308797 5614.0
68.040232653 5975.0
68.045156509 6348.0
68.050080365 6921.0
68.055004221 7322.0
68.059928077 8043.0
68.064851933 8813.0
68.069775789 9628.0
68.074699645 10571.0
68.079623501 11613.0
68.084547357 12739.0
68.089471213 14409.0
68.094395069 16358.0
68.099318925 18906.0
68.104242781 21757.0
68.109166637 25718.0
68.114090493 30688.0
68.119014349 38663.0
68.123938205 48228.0
68.128862061 68018.0
68.133785917 86430.0
68.138709773 124801.0
68.143633629 148813.0
68.148557486 186455.0
68.153481342 203474.0
68.158405198 222765.0
68.163329054 231456.0
68.168252910 236529.0
68.173176766 240702.0
68.178100622 234410.0
68.183024478 231558.0
68.187948334 208281.0
68.192872190 191107.0
68.197796046 148282.0
68.202719902 125532.0
68.207643758 91264.0
68.212567614 75252.0
68.217491470 58079.0
68.222415326 47029.0
68.227339182 38959.0
68.232263038 31251.0
68.237186894 27055.0
68.242110750 22421.0
68.247034606 20351.0
68.251958462 17361.0
68.256882318 16331.0
68.261806174 14885.0
68.266730030 14242.0
68.271653886 13616.0
68.276577742 13907.0
68.281501598 13416.0
68.286425454 14623.0
68.291349310 14663.0
68.296273166 16847.0
68.301197022 17358.0
68.306120878 21605.0
68.311044734 23048.0
68.315968590 31196.0
68.320892446 34848.0
68.325816302 50785.0
68.330740158 56496.0
68.335664014 78385.0
68.340587870 83504.0
68.345511726 100495.0
68.350435582 104186.0
68.355359438 112836.0
68.360283294 113773.0
68.365207150 115227.0
68.370131006 113439.0
68.375054862 107626.0
68.379978718 103084.0
68.384902574 87832.0
68.389826430 80897.0
68.394750286 60639.0
68.399674142 54290.0
68.404597998 38674.0
68.409521854 34770.0
68.414445710 24946.0
68.419369566 22307.0
68.424293422 16762.0
68.429217278 15242.0
68.434141134 11914.0
68.439064990 11284.0
68.443988846 9126.0
68.448912702 8569.0
68.453836558 7472.0
68.458760414 7035.0
68.463684270 6061.0
68.468608126 5837.0
68.473531982 5119.0
68.478455838 5071.0
68.483379694 4568.0
68.488303550 4317.0
68.493227406 4038.0
68.498151262 4026.0
68.503075118 3725.0
68.507998974 3680.0
68.512922830 3358.0
68.517846687 3331.0
68.522770543 3148.0
68.527694399 3048.0
68.532618255 3005.0
68.537542111 2736.0
68.542465967 2718.0
68.547389823 2615.0
68.552313679 2563.0
68.557237535 2495.0
68.562161391 2402.0
68.567085247 2280.0
68.572009103 2244.0
68.576932959 2245.0
68.581856815 2122.0
68.586780671 2122.0
68.591704527 1943.0
68.596628383 1965.0
68.601552239 1872.0
68.606476095 1923.0
68.611399951 1923.0
68.616323807 1710.0
68.621247663 1729.0
68.626171519 1651.0
68.631095375 1722.0
68.636019231 1607.0
68.640943087 1569.0
68.645866943 1577.0
68.650790799 1525.0
68.655714655 1489.0
68.660638511 1528.0
68.665562367 1402.0
68.670486223 1438.0
68.675410079 1330.0
68.680333935 1354.0
68.685257791 1252.0
68.690181647 1300.0
68.695105503 1236.0
68.700029359 1199.0
68.704953215 1198.0
68.709877071 1152.0
68.714800927 1175.0
68.719724783 1151.0
68.724648639 1157.0
68.729572495 1195.0
68.734496351 1100.0
68.739420207 1032.0
68.744344063 1071.0
68.749267919 1018.0
68.754191775 1096.0
68.759115631 1056.0
68.764039487 948.0
68.768963343 935.0
68.773887199 976.0
68.778811055 933.0
68.783734911 954.0
68.788658767 904.0
68.793582623 931.0
68.798506479 890.0
68.803430335 827.0
68.808354191 911.0
68.813278047 856.0
68.818201903 838.0
68.823125759 831.0
68.828049615 823.0
68.832973471 830.0
68.837897327 816.0
68.842821183 816.0
68.847745039 809.0
68.852668895 760.0
68.857592751 778.0
68.862516607 775.0
68.867440463 719.0
68.872364319 688.0
68.877288175 737.0
68.882212031 701.0
68.887135887 691.0
68.892059744 716.0
68.896983600 684.0
68.901907456 634.0
68.906831312 691.0
68.911755168 713.0
68.916679024 689.0
68.921602880 657.0
68.926526736 641.0
68.931450592 577.0
68.936374448 647.0
68.941298304 599.0
68.946222160 596.0
68.951146016 574.0
68.956069872 589.0
68.960993728 560.0
68.965917584 574.0
68.970841440 551.0
68.975765296 598.0
68.980689152 554.0
68.985613008 553.0
68.990536864 549.0
68.995460720 608.0
69.000384576 542.0
69.005308432 539.0
69.010232288 525.0
69.015156144 540.0
69.020080000 500.0
69.025003856 527.0
69.029927712 545.0
69.034851568 519.0
69.039775424 533.0
69.044699280 535.0
69.049623136 519.0
69.054546992 493.0
69.059470848 511.0
69.064394704 482.0
69.069318560 485.0
69.074242416 495.0
69.079166272 472.0
69.084090128 482.0
69.089013984 451.0
69.093937840 521.0
69.098861696 472.0
69.103785552 423.0
69.108709408 451.0
69.113633264 442.0
69.118557120 447.0
69.123480976 442.0
69.128404832 427.0
69.133328688 463.0
69.138252544 403.0
69.143176400 435.0
69.148100256 400.0
69.153024112 414.0
69.157947968 399.0
69.162871824 434.0
69.167795680 429.0
69.172719536 412.0
69.177643392 395.0
69.182567248 398.0
69.187491104 414.0
69.192414960 400.0
69.197338816 383.0
69.202262672 423.0
69.207186528 430.0
69.212110384 393.0
69.217034240 379.0
69.221958096 397.0
69.226881952 381.0
69.231805808 376.0
69.236729664 363.0
69.241653520 372.0
69.246577376 374.0
69.251501232 356.0
69.256425088 341.0
69.261348945 319.0
69.266272801 356.0
69.271196657 369.0
69.276120513 331.0
69.281044369 338.0
69.285968225 364.0
69.290892081 314.0
69.295815937 362.0
69.300739793 343.0
69.305663649 317.0
69.310587505 328.0
69.315511361 342.0
69.320435217 358.0
69.325359073 340.0
69.330282929 295.0
69.335206785 337.0
69.340130641 282.0
69.345054497 324.0
69.349978353 345.0
69.354902209 334.0
69.359826065 323.0
69.364749921 307.0
69.369673777 307.0
69.374597633 312.0
69.379521489 288.0
69.384445345 287.0
69.389369201 302.0
69.394293057 329.0
69.399216913 293.0
69.404140769 301.0
69.409064625 264.0
69.413988481 277.0
69.418912337 284.0
69.423836193 285.0
69.428760049 265.0
69.433683905 234.0
69.438607761 279.0
69.443531617 284.0
69.448455473 284.0
69.453379329 285.0
69.458303185 299.0
69.463227041 299.0
69.468150897 238.0
69.473074753 292.0
69.477998609 298.0
69.482922465 260.0
69.487846321 238.0
69.492770177 276.0
69.497694033 256.0
69.502617889 264.0
69.507541745 216.0
69.512465601 266.0
69.517389457 260.0
69.522313313 260.0
69.527237169 230.0
69.532161025 258.0
69.537084881 265.0
69.542008737 263.0
69.546932593 259.0
69.551856449 256.0
69.556780305 265.0
69.561704161 224.0
69.566628017 219.0
69.571551873 236.0
69.576475729 260.0
69.581399585 224.0
69.586323441 214.0
69.591247297 287.0
69.596171153 259.0
69.601095009 222.0
69.606018865 227.0
69.610942721 221.0
69.615866577 228.0
69.620790433 227.0
69.625714289 221.0
69.630638146 219.0
69.635562002 238.0
69.640485858 200.0
69.645409714 216.0
69.650333570 236.0
69.655257426 217.0
69.660181282 228.0
69.665105138 228.0
69.670028994 211.0
69.674952850 212.0
69.679876706 226.0
69.684800562 198.0
69.689724418 227.0
69.694648274 212.0
69.699572130 225.0
69.704495986 233.0
69.709419842 205.0
69.714343698 235.0
69.719267554 212.0
69.724191410 209.0
69.729115266 199.0
69.734039122 201.0
69.738962978 218.0
69.743886834 194.0
69.748810690 180.0
69.753734546 201.0
69.758658402 183.0
69.763582258 197.0
69.768506114 192.0
69.773429970 207.0
69.778353826 186.0
69.783277682 199.0
69.788201538 206.0
69.793125394 183.0
69.798049250 188.0
69.802973106 212.0
69.807896962 217.0
69.812820818 198.0
69.817744674 177.0
69.822668530 195.0
69.827592386 201.0
69.832516242 198.0
69.837440098 194.0
69.842363954 180.0
69.847287810 220.0
69.852211666 220.0
69.857135522 180.0
69.862059378 178.0
69.866983234 185.0
69.871907090 209.0
69.876830946 192.0
69.881754802 159.0
69.886678658 196.0
69.891602514 191.0
69.896526370 190.0
69.901450226 220.0
69.906374082 180.0
69.911297938 201.0
69.916221794 191.0
69.921145650 195.0
69.926069506 181.0
69.930993362 179.0
69.935917218 189.0
69.940841074 169.0
69.945764930 195.0
69.950688786 194.0
69.955612642 175.0
69.960536498 170.0
69.965460354 180.0
69.970384210 174.0
69.975308066 184.0
69.980231922 191.0
69.985155778 207.0
69.990079634 162.0
69.995003490 199.0
69.999927347 171.0
70.004851203 214.0
70.009775059 183.0
70.014698915 198.0
70.019622771 214.0
70.024546627 190.0
70.029470483 190.0
70.034394339 221.0
70.039318195 186.0
70.044242051 147.0
70.049165907 199.0
70.054089763 189.0
70.059013619 164.0
70.063937475 169.0
70.068861331 152.0
70.073785187 210.0
70.078709043 189.0
70.083632899 178.0
70.088556755 161.0
70.093480611 190.0
70.098404467 184.0
70.103328323 177.0
70.108252179 170.0
70.113176035 172.0
70.118099891 168.0
70.123023747 181.0
70.127947603 190.0
70.132871459 143.0
70.137795315 179.0
70.142719171 157.0
70.147643027 175.0
70.152566883 167.0
70.157490739 174.0
70.162414595 166.0
70.167338451 183.0
70.172262307 166.0
70.177186163 190.0
70.182110019 162.0
70.187033875 186.0
70.191957731 168.0
70.196881587 173.0
70.201805443 163.0
70.206729299 169.0
70.211653155 171.0
70.216577011 180.0
70.221500867 173.0
70.226424723 190.0
70.231348579 183.0
70.236272435 163.0
70.241196291 168.0
70.246120147 154.0
70.251044003 160.0
70.255967859 164.0
70.260891715 164.0
70.265815571 139.0
70.270739427 200.0
70.275663283 156.0
70.280587139 172.0
70.285510995 150.0
70.290434851 152.0
70.295358707 175.0
70.300282563 177.0
70.305206419 168.0
70.310130275 148.0
70.315054131 160.0
70.319977987 172.0
70.324901843 174.0
70.329825699 158.0
70.334749555 162.0
70.339673411 153.0
70.344597267 156.0
70.349521123 170.0
70.354444979 169.0
70.359368835 173.0
70.364292691 180.0
70.369216548 178.0
70.374140404 151.0
70.379064260 182.0
70.383988116 152.0
70.388911972 173.0
70.393835828 163.0
70.398759684 153.0
70.403683540 156.0
70.408607396 166.0
70.413531252 174.0
70.418455108 188.0
70.423378964 165.0
70.428302820 173.0
70.433226676 152.0
70.438150532 156.0
70.443074388 150.0
70.447998244 175.0
70.452922100 155.0
70.457845956 176.0
70.462769812 157.0
70.467693668 172.0
70.472617524 136.0
70.477541380 174.0
70.482465236 136.0
70.487389092 156.0
70.492312948 171.0
70.497236804 153.0
70.502160660 162.0
70.507084516 161.0
70.512008372 164.0
70.516932228 140.0
70.521856084 158.0
70.526779940 171.0
70.531703796 142.0
70.536627652 165.0
70.541551508 139.0
70.546475364 166.0
70.551399220 160.0
70.556323076 135.0
70.561246932 139.0
70.566170788 139.0
70.571094644 155.0
70.576018500 144.0
70.580942356 159.0
70.585866212 154.0
70.590790068 139.0
70.595713924 138.0
70.600637780 127.0
70.605561636 143.0
70.610485492 147.0
70.615409348 145.0
70.620333204 168.0
70.625257060 174.0
70.630180916 165.0
70.635104772 150.0
70.640028628 168.0
70.644952484 160.0
70.649876340 165.0
70.654800196 165.0
70.659724052 158.0
70.664647908 147.0
70.669571764 154.0
70.674495620 153.0
70.679419476 140.0
70.684343332 167.0
70.689267188 170.0
70.694191044 143.0
70.699114900 149.0
70.704038756 159.0
70.708962612 170.0
70.713886468 177.0
70.718810324 163.0
70.723734180 166.0
70.728658036 155.0
70.733581892 165.0
70.738505748 173.0
70.743429605 150.0
70.748353461 148.0
70.753277317 166.0
70.758201173 137.0
70.763125029 138.0
70.768048885 149.0
70.772972741 163.0
70.777896597 142.0
70.782820453 150.0
70.787744309 145.0
70.792668165 143.0
70.797592021 159.0
70.802515877 152.0
70.807439733 145.0
70.812363589 159.0
70.817287445 138.0
70.822211301 136.0
70.827135157 144.0
70.832059013 162.0
70.836982869 140.0
70.841906725 164.0
70.846830581 135.0
70.851754437 147.0
70.856678293 162.0
70.861602149 149.0
70.866526005 167.0
70.871449861 145.0
70.876373717 136.0
70.881297573 128.0
70.886221429 151.0
70.891145285 129.0
70.896069141 159.0
70.900992997 135.0
70.905916853 139.0
70.910840709 166.0
70.915764565 134.0
70.920688421 120.0
70.925612277 159.0
70.930536133 154.0
70.935459989 135.0
70.940383845 145.0
70.945307701 161.0
70.950231557 163.0
70.955155413 140.0
70.960079269 149.0
70.965003125 131.0
70.969926981 151.0
70.974850837 182.0
70.979774693 138.0
70.984698549 174.0
70.989622405 140.0
70.994546261 151.0
70.999470117 154.0
71.004393973 140.0
71.009317829 145.0
71.014241685 158.0
71.019165541 141.0
71.024089397 138.0
71.029013253 148.0
71.033937109 133.0
71.038860965 160.0
71.043784821 158.0
71.048708677 138.0
71.053632533 124.0
71.058556389 150.0
71.063480245 138.0
71.068404101 165.0
71.073327957 146.0
71.078251813 175.0
71.083175669 157.0
71.088099525 145.0
71.093023381 166.0
71.097947237 139.0
71.102871093 138.0
71.107794949 153.0
71.112718806 134.0
71.117642662 149.0
71.122566518 144.0
71.127490374 150.0
71.132414230 152.0
71.137338086 134.0
71.142261942 144.0
71.147185798 129.0
71.152109654 150.0
71.157033510 132.0
71.161957366 137.0
71.166881222 129.0
71.171805078 125.0
71.176728934 136.0
71.181652790 131.0
71.186576646 140.0
71.191500502 133.0
71.196424358 138.0
71.201348214 132.0
71.206272070 129.0
71.211195926 144.0
71.216119782 151.0
71.221043638 149.0
71.225967494 117.0
71.230891350 145.0
71.235815206 147.0
71.240739062 135.0
71.245662918 127.0
71.250586774 135.0
71.255510630 125.0
71.260434486 156.0
71.265358342 148.0
71.270282198 139.0
71.275206054 158.0
71.280129910 140.0
71.285053766 155.0
71.289977622 140.0
71.294901478 142.0
71.299825334 138.0
71.304749190 143.0
71.309673046 160.0
71.314596902 136.0
71.319520758 136.0
71.324444614 132.0
71.329368470 128.0
71.334292326 141.0
71.339216182 148.0
71.344140038 135.0
71.349063894 156.0
71.353987750 158.0
71.358911606 153.0
71.363835462 133.0
71.368759318 154.0
71.373683174 154.0
71.378607030 141.0
71.383530886 148.0
71.388454742 137.0
71.393378598 138.0
71.398302454 133.0
71.403226310 138.0
71.408150166 132.0
71.413074022 146.0
71.417997878 137.0
71.422921734 130.0
71.427845590 143.0
71.432769446 155.0
71.437693302 152.0
71.442617158 132.0
71.447541014 139.0
71.452464870 127.0
71.457388726 157.0
71.462312582 130.0
71.467236438 134.0
71.472160294 155.0
71.477084150 180.0
71.482008007 165.0
71.486931863 137.0
71.491855719 153.0
71.496779575 141.0
71.501703431 159.0
71.506627287 135.0
71.511551143 118.0
71.516474999 131.0
71.521398855 133.0
71.526322711 132.0
71.531246567 130.0
71.536170423 131.0
71.541094279 139.0
71.546018135 119.0
71.550941991 127.0
71.555865847 165.0
71.560789703 134.0
71.565713559 139.0
71.570637415 154.0
71.575561271 120.0
71.580485127 129.0
71.585408983 109.0
71.590332839 154.0
71.595256695 136.0
71.600180551 131.0
71.605104407 171.0
71.610028263 132.0
71.614952119 155.0
71.619875975 129.0
71.624799831 123.0
71.629723687 150.0
71.634647543 142.0
71.639571399 138.0
71.644495255 124.0
71.649419111 137.0
71.654342967 140.0
71.659266823 134.0
71.664190679 131.0
71.669114535 159.0
71.674038391 136.0
71.678962247 125.0
71.683886103 143.0
71.688809959 145.0
71.693733815 149.0
71.698657671 147.0
71.703581527 133.0
71.708505383 135.0
71.713429239 139.0
71.718353095 172.0
71.723276951 138.0
71.728200807 142.0
71.733124663 148.0
71.738048519 150.0
71.742972375 145.0
71.747896231 124.0
71.752820087 131.0
71.757743943 158.0
71.762667799 122.0
71.767591655 141.0
71.772515511 111.0
71.777439367 136.0
71.782363223 128.0
71.787287079 125.0
71.792210935 141.0
71.797134791 138.0
71.802058647 125.0
71.806982503 139.0
71.811906359 135.0
71.816830215 145.0
71.821754071 140.0
71.826677927 140.0
71.831601783 135.0
71.836525639 134.0
71.841449495 111.0
71.846373351 114.0
71.851297208 126.0
71.856221064 151.0
71.861144920 141.0
71.866068776 138.0
71.870992632 133.0
71.875916488 137.0
71.880840344 151.0
71.885764200 125.0
71.890688056 139.0
71.895611912 134.0
71.900535768 123.0
71.905459624 142.0
71.910383480 139.0
71.915307336 128.0
71.920231192 112.0
71.925155048 145.0
71.930078904 124.0
71.935002760 139.0
71.939926616 125.0
71.944850472 155.0
71.949774328 135.0
71.954698184 141.0
71.959622040 142.0
71.964545896 135.0
71.969469752 149.0
71.974393608 121.0
71.979317464 144.0
71.984241320 149.0
71.989165176 154.0
71.994089032 141.0
71.999012888 141.0
72.003936744 114.0
72.008860600 130.0
72.013784456 144.0
72.018708312 155.0
72.023632168 159.0
72.028556024 133.0
72.033479880 140.0
72.038403736 135.0
72.043327592 134.0
72.048251448 127.0
72.053175304 123.0
72.058099160 133.0
72.063023016 144.0
72.067946872 123.0
72.072870728 140.0
72.077794584 133.0
72.082718440 141.0
72.087642296 134.0
72.092566152 148.0
72.097490008 128.0
72.102413864 148.0
72.107337720 139.0
72.112261576 120.0
72.117185432 127.0
72.122109288 120.0
72.127033144 151.0
72.131957000 140.0
72.136880856 136.0
72.141804712 137.0
72.146728568 150.0
72.151652424 128.0
72.156576280 142.0
72.161500136 117.0
72.166423992 134.0
72.171347848 127.0
72.176271704 141.0
72.181195560 136.0
72.186119416 127.0
72.191043272 126.0
72.195967128 128.0
72.200890984 125.0
72.205814840 150.0
72.210738696 132.0
72.215662552 133.0
72.220586409 143.0
72.225510265 129.0
72.230434121 154.0
72.235357977 146.0
72.240281833 115.0
72.245205689 143.0
72.250129545 134.0
72.255053401 154.0
72.259977257 138.0
72.264901113 143.0
72.269824969 121.0
72.274748825 138.0
72.279672681 122.0
72.284596537 112.0
72.289520393 129.0
72.294444249 134.0
72.299368105 127.0
72.304291961 128.0
72.309215817 121.0
72.314139673 118.0
72.319063529 131.0
72.323987385 117.0
72.328911241 140.0
72.333835097 148.0
72.338758953 140.0
72.343682809 132.0
72.348606665 131.0
72.353530521 122.0
72.358454377 110.0
72.363378233 123.0
72.368302089 147.0
72.373225945 134.0
72.378149801 130.0
72.383073657 150.0
72.387997513 135.0
72.392921369 139.0
72.397845225 114.0
72.402769081 126.0
72.407692937 150.0
72.412616793 123.0
72.417540649 107.0
72.422464505 126.0
72.427388361 130.0
72.432312217 151.0
72.437236073 138.0
72.442159929 126.0
72.447083785 146.0
72.452007641 139.0
72.456931497 134.0
72.461855353 130.0
72.466779209 123.0
72.471703065 132.0
72.476626921 124.0
72.481550777 132.0
72.486474633 113.0
72.491398489 132.0
72.496322345 115.0
72.501246201 122.0
72.506170057 117.0
72.511093913 133.0
72.516017769 152.0
72.520941625 124.0
72.525865481 129.0
72.530789337 137.0
72.535713193 147.0
72.540637049 139.0
72.545560905 127.0
72.550484761 127.0
72.555408617 130.0
72.560332473 132.0
72.565256329 149.0
72.570180185 133.0
72.575104041 137.0
72.580027897 147.0
72.584951753 121.0
72.589875609 138.0
72.594799466 142.0
72.599723322 116.0
72.604647178 147.0
72.609571034 101.0
72.614494890 125.0
72.619418746 127.0
72.624342602 131.0
72.629266458 145.0
72.634190314 149.0
72.639114170 135.0
72.644038026 133.0
72.648961882 136.0
72.653885738 125.0
72.658809594 124.0
72.663733450 126.0
72.668657306 134.0
72.673581162 120.0
72.678505018 123.0
72.683428874 112.0
72.688352730 144.0
72.693276586 132.0
72.698200442 126.0
72.703124298 129.0
72.708048154 126.0
72.712972010 134.0
72.717895866 130.0
72.722819722 119.0
72.727743578 128.0
72.732667434 137.0
72.737591290 131.0
72.742515146 139.0
72.747439002 111.0
72.752362858 130.0
72.757286714 112.0
72.762210570 138.0
72.767134426 127.0
72.772058282 148.0
72.776982138 122.0
72.781905994 138.0
72.786829850 148.0
72.791753706 126.0
72.796677562 157.0
72.801601418 132.0
72.806525274 131.0
72.811449130 150.0
72.816372986 127.0
72.821296842 132.0
72.826220698 140.0
72.831144554 147.0
72.836068410 120.0
72.840992266 144.0
72.845916122 136.0
72.850839978 115.0
72.855763834 121.0
72.860687690 134.0
72.865611546 134.0
72.870535402 135.0
72.875459258 122.0
72.880383114 164.0
72.885306970 136.0
72.890230826 129.0
72.895154682 124.0
72.900078538 146.0
72.905002394 137.0
72.909926250 115.0
72.914850106 128.0
72.919773962 138.0
72.924697818 110.0
72.929621674 128.0
72.934545530 118.0
72.939469386 139.0
72.944393242 123.0
72.949317098 142.0
72.954240954 144.0
72.959164810 132.0
72.964088667 126.0
72.969012523 140.0
72.973936379 116.0
72.978860235 151.0
72.983784091 129.0
72.988707947 139.0
72.993631803 129.0
72.998555659 120.0
73.003479515 109.0
73.008403371 156.0
73.013327227 139.0
73.018251083 119.0
73.023174939 117.0
73.028098795 134.0
73.033022651 133.0
73.037946507 128.0
73.042870363 132.0
73.047794219 135.0
73.052718075 135.0
73.057641931 120.0
73.062565787 154.0
73.067489643 144.0
73.072413499 127.0
73.077337355 155.0
73.082261211 142.0
73.087185067 117.0
73.092108923 110.0
73.097032779 141.0
73.101956635 97.0
73.106880491 128.0
73.111804347 134.0
73.116728203 137.0
73.121652059 99.0
73.126575915 128.0
73.131499771 139.0
73.136423627 128.0
73.141347483 103.0
73.146271339 158.0
73.151195195 125.0
73.156119051 128.0
73.161042907 138.0
73.165966763 119.0
73.170890619 148.0
73.175814475 126.0
73.180738331 137.0
73.185662187 140.0
73.190586043 130.0
73.195509899 136.0
73.200433755 131.0
73.205357611 135.0
73.210281467 134.0
73.215205323 146.0
73.220129179 136.0
73.225053035 126.0
73.229976891 148.0
73.234900747 106.0
73.239824603 133.0
73.244748459 126.0
73.249672315 152.0
73.254596171 133.0
73.259520027 117.0
73.264443883 144.0
73.269367739 141.0
73.274291595 125.0
73.279215451 160.0
73.284139307 149.0
73.289063163 128.0
73.293987019 122.0
73.298910875 145.0
73.303834731 131.0
73.308758587 117.0
73.313682443 128.0
73.318606299 119.0
73.323530155 126.0
73.328454011 157.0
73.333377868 103.0
73.338301724 130.0
73.343225580 146.0
73.348149436 135.0
73.353073292 136.0
73.357997148 117.0
73.362921004 138.0
73.367844860 138.0
73.372768716 148.0
73.377692572 133.0
73.382616428 128.0
73.387540284 151.0
73.392464140 131.0
73.397387996 128.0
73.402311852 126.0
73.407235708 132.0
73.412159564 119.0
73.417083420 130.0
73.422007276 125.0
73.426931132 133.0
73.431854988 131.0
73.436778844 134.0
73.441702700 123.0
73.446626556 136.0
73.451550412 134.0
73.456474268 151.0
73.461398124 125.0
73.466321980 121.0
73.471245836 108.0
73.476169692 128.0
73.481093548 136.0
73.486017404 130.0
73.490941260 156.0
73.495865116 130.0
73.500788972 142.0
73.505712828 131.0
73.510636684 142.0
73.515560540 144.0
73.520484396 122.0
73.525408252 138.0
73.530332108 136.0
73.535255964 120.0
73.540179820 113.0
73.545103676 146.0
73.550027532 154.0
73.554951388 124.0
73.559875244 121.0
73.564799100 127.0
73.569722956 136.0
73.574646812 113.0
73.579570668 131.0
73.584494524 130.0
73.589418380 126.0
73.594342236 111.0
73.599266092 114.0
73.604189948 123.0
73.609113804 112.0
73.614037660 123.0
73.618961516 120.0
73.623885372 130.0
73.628809228 134.0
73.633733084 115.0
73.638656940 121.0
73.643580796 124.0
73.648504652 135.0
73.653428508 140.0
73.658352364 127.0
73.663276220 139.0
73.668200076 134.0
73.673123932 121.0
73.678047788 138.0
73.682971644 132.0
73.687895500 127.0
73.692819356 122.0
73.697743212 137.0
73.702667069 123.0
73.707590925 117.0
73.712514781 138.0
73.717438637 138.0
73.722362493 132.0
73.727286349 143.0
73.732210205 133.0
73.737134061 128.0
73.742057917 144.0
73.746981773 144.0
73.751905629 122.0
73.756829485 134.0
73.761753341 114.0
73.766677197 111.0
73.771601053 126.0
73.776524909 114.0
73.781448765 135.0
73.786372621 117.0
73.791296477 135.0
73.796220333 132.0
73.801144189 128.0
73.806068045 126.0
73.810991901 118.0
73.815915757 128.0
73.820839613 134.0
73.825763469 127.0
73.830687325 125.0
73.835611181 118.0
73.840535037 108.0
73.845458893 115.0
73.850382749 127.0
73.855306605 131.0
73.860230461 136.0
73.865154317 116.0
73.870078173 116.0
73.875002029 106.0
73.879925885 137.0
73.884849741 115.0
73.889773597 139.0
73.894697453 121.0
73.899621309 130.0
73.904545165 108.0
73.909469021 105.0
73.914392877 147.0
73.919316733 133.0
73.924240589 125.0
73.929164445 113.0
73.934088301 126.0
73.939012157 129.0
73.943936013 128.0
73.948859869 134.0
73.953783725 118.0
73.958707581 117.0
73.963631437 145.0
73.968555293 147.0
73.973479149 136.0
73.978403005 109.0
73.983326861 132.0
73.988250717 116.0
73.993174573 159.0
73.998098429 108.0
74.003022285 139.0
74.007946141 108.0
74.012869997 139.0
74.017793853 121.0
74.022717709 134.0
74.027641565 101.0
74.032565421 141.0
74.037489277 115.0
74.042413133 120.0
74.047336989 120.0
74.052260845 144.0
74.057184701 124.0
74.062108557 123.0
74.067032413 144.0
74.071956270 132.0
74.076880126 133.0
74.081803982 147.0
74.086727838 133.0
74.091651694 112.0
74.096575550 120.0
74.101499406 122.0
74.106423262 131.0
74.111347118 138.0
74.116270974 144.0
74.121194830 147.0
74.126118686 138.0
74.131042542 146.0
74.135966398 125.0
74.140890254 124.0
74.145814110 119.0
74.150737966 115.0
74.155661822 118.0
74.160585678 106.0
74.165509534 119.0
74.170433390 130.0
74.175357246 117.0
74.180281102 135.0
74.185204958 144.0
74.190128814 137.0
74.195052670 115.0
74.199976526 131.0
74.204900382 133.0
74.209824238 114.0
74.214748094 148.0
74.219671950 121.0
74.224595806 123.0
74.229519662 129.0
74.234443518 131.0
74.239367374 134.0
74.244291230 138.0
74.249215086 114.0
74.254138942 135.0
74.259062798 136.0
74.263986654 128.0
74.268910510 120.0
74.273834366 120.0
74.278758222 119.0
74.283682078 136.0
74.288605934 127.0
74.293529790 118.0
74.298453646 121.0
74.303377502 134.0
74.308301358 133.0
74.313225214 151.0
74.318149070 141.0
74.323072926 117.0
74.327996782 134.0
74.332920638 107.0
74.337844494 133.0
74.342768350 127.0
74.347692206 127.0
74.352616062 137.0
74.357539918 127.0
74.362463774 135.0
74.367387630 108.0
74.372311486 131.0
74.377235342 145.0
74.382159198 124.0
74.387083054 114.0
74.392006910 139.0
74.396930766 136.0
74.401854622 140.0
74.406778478 135.0
74.411702334 132.0
74.416626190 122.0
74.421550046 122.0
74.426473902 133.0
74.431397758 128.0
74.436321614 130.0
74.441245470 106.0
74.446169327 126.0
74.451093183 142.0
74.456017039 126.0
74.460940895 114.0
74.465864751 120.0
74.470788607 118.0
74.475712463 131.0
74.480636319 133.0
74.485560175 131.0
74.490484031 129.0
74.495407887 114.0
74.500331743 125.0
74.505255599 112.0
74.510179455 129.0
74.515103311 146.0
74.520027167 119.0
74.524951023 131.0
74.529874879 120.0
74.534798735 114.0
74.539722591 134.0
74.544646447 126.0
74.549570303 141.0
74.554494159 124.0
74.559418015 131.0
74.564341871 134.0
74.569265727 119.0
74.574189583 116.0
74.579113439 165.0
74.584037295 133.0
74.588961151 127.0
74.593885007 120.0
74.598808863 121.0
74.603732719 112.0
74.608656575 126.0
74.613580431 143.0
74.618504287 116.0
74.623428143 138.0
74.628351999 95.0
74.633275855 149.0
74.638199711 142.0
74.643123567 118.0
74.648047423 134.0
74.652971279 137.0
74.657895135 138.0
74.662818991 162.0
74.667742847 109.0
74.672666703 117.0
74.677590559 129.0
74.682514415 112.0
74.687438271 142.0
74.692362127 114.0
74.697285983 123.0
74.702209839 123.0
74.707133695 121.0
74.712057551 125.0
74.716981407 127.0
74.721905263 142.0
74.726829119 135.0
74.731752975 118.0
74.736676831 123.0
74.741600687 128.0
74.746524543 121.0
74.751448399 125.0
74.756372255 138.0
74.761296111 127.0
74.766219967 125.0
74.771143823 145.0
74.776067679 119.0
74.780991535 110.0
74.785915391 134.0
74.790839247 134.0
74.795763103 120.0
74.800686959 138.0
74.805610815 129.0
74.810534671 104.0
74.815458528 118.0
74.820382384 130.0
74.825306240 120.0
74.830230096 123.0
74.835153952 118.0
74.840077808 134.0
74.845001664 141.0
74.849925520 136.0
74.854849376 134.0
74.859773232 116.0
74.864697088 144.0
74.869620944 128.0
74.874544800 136.0
74.879468656 150.0
74.884392512 134.0
74.889316368 137.0
74.894240224 131.0
74.899164080 135.0
74.904087936 131.0
74.909011792 121.0
74.913935648 129.0
74.918859504 123.0
74.923783360 150.0
74.928707216 166.0
74.933631072 137.0
74.938554928 119.0
74.943478784 111.0
74.948402640 131.0
74.953326496 130.0
74.958250352 124.0
74.963174208 131.0
74.968098064 140.0
74.973021920 149.0
74.977945776 108.0
74.982869632 119.0
74.987793488 130.0
74.992717344 134.0
74.997641200 137.0
