35.002061930 49.0
35.006985786 48.0
35.011909642 55.0
35.016833498 48.0
35.021757354 54.0
35.026681210 50.0
35.031605066 51.0
35.036528922 43.0
35.041452778 41.0
35.046376634 53.0
35.051300490 64.0
35.056224346 45.0
35.061148202 59.0
35.066072058 55.0
35.070995914 48.0
35.075919770 55.0
35.080843626 53.0
35.085767482 53.0
35.090691338 44.0
35.095615194 48.0
35.100539050 48.0
35.105462906 52.0
35.110386762 47.0
35.115310618 64.0
35.120234474 48.0
35.125158330 54.0
35.130082186 39.0
35.135006042 57.0
35.139929898 60.0
35.144853754 43.0
35.149777610 50.0
35.154701466 47.0
35.159625322 45.0
35.164549178 46.0
35.169473034 51.0
35.174396890 52.0
35.179320746 56.0
35.184244602 57.0
35.189168458 58.0
35.194092314 47.0
35.199016170 64.0
35.203940026 52.0
35.208863882 61.0
35.213787738 54.0
35.218711594 71.0
35.223635450 59.0
35.228559306 64.0
35.233483162 56.0
35.238407018 51.0
35.243330874 55.0
35.248254730 47.0
35.253178587 50.0
35.258102443 57.0
35.263026299 61.0
35.267950155 48.0
35.272874011 52.0
35.277797867 58.0
35.282721723 55.0
35.287645579 43.0
35.292569435 56.0
35.297493291 48.0
35.302417147 47.0
35.307341003 42.0
35.312264859 55.0
35.317188715 45.0
35.322112571 58.0
35.327036427 64.0
35.331960283 51.0
35.336884139 42.0
35.341807995 44.0
35.346731851 59.0
35.351655707 53.0
35.356579563 49.0
35.361503419 54.0
35.366427275 48.0
35.371351131 59.0
35.376274987 67.0
35.381198843 57.0
35.386122699 37.0
35.391046555 57.0
35.395970411 40.0
35.400894267 43.0
35.405818123 45.0
35.410741979 43.0
35.415665835 42.0
35.420589691 53.0
35.425513547 57.0
35.430437403 53.0
35.435361259 58.0
35.440285115 51.0
35.445208971 63.0
35.450132827 41.0
35.455056683 51.0
35.459980539 54.0
35.464904395 65.0
35.469828251 53.0
35.474752107 57.0
35.479675963 53.0
35.484599819 49.0
35.489523675 53.0
35.494447531 56.0
35.499371387 48.0
35.504295243 59.0
35.509219099 59.0
35.514142955 47.0
35.519066811 52.0
35.523990667 38.0
35.528914523 58.0
35.533838379 50.0
35.538762235 57.0
35.543686091 65.0
35.548609947 51.0
35.553533803 53.0
35.558457659 43.0
35.563381515 47.0
35.568305371 45.0
35.573229227 66.0
35.578153083 65.0
35.583076939 53.0
35.588000795 51.0
35.592924651 49.0
35.597848507 50.0
35.602772363 54.0
35.607696219 44.0
35.612620075 53.0
35.617543931 51.0
35.622467787 68.0
35.627391643 62.0
35.632315499 45.0
35.637239355 48.0
35.642163211 51.0
35.647087067 55.0
35.652010923 45.0
35.656934779 49.0
35.661858635 58.0
35.666782491 50.0
35.671706347 50.0
35.676630203 46.0
35.681554059 62.0
35.686477915 61.0
35.691401771 51.0
35.696325627 50.0
35.701249483 61.0
35.706173339 40.0
35.711097195 49.0
35.716021051 46.0
35.720944907 53.0
35.725868763 51.0
35.730792619 64.0
35.735716475 53.0
35.740640331 45.0
35.745564187 56.0
35.750488043 31.0
35.755411900 48.0
35.760335756 46.0
35.765259612 45.0
35.770183468 43.0
35.775107324 52.0
35.780031180 51.0
35.784955036 55.0
35.789878892 49.0
35.794802748 61.0
35.799726604 43.0
35.804650460 43.0
35.809574316 43.0
35.814498172 57.0
35.819422028 51.0
35.824345884 43.0
35.829269740 56.0
35.834193596 55.0
35.839117452 52.0
35.844041308 43.0
35.848965164 42.0
35.853889020 60.0
35.858812876 41.0
35.863736732 40.0
35.868660588 46.0
35.873584444 56.0
35.878508300 51.0
35.883432156 41.0
35.888356012 55.0
35.893279868 56.0
35.898203724 55.0
35.903127580 45.0
35.908051436 45.0
35.912975292 54.0
35.917899148 44.0
35.922823004 49.0
35.927746860 51.0
35.932670716 45.0
35.937594572 42.0
35.942518428 50.0
35.947442284 37.0
35.952366140 61.0
35.957289996 53.0
35.962213852 51.0
35.967137708 52.0
35.972061564 55.0
35.976985420 59.0
35.981909276 53.0
35.986833132 51.0
35.991756988 46.0
35.996680844 56.0
36.001604700 52.0
36.006528556 50.0
36.011452412 53.0
36.016376268 61.0
36.021300124 52.0
36.026223980 46.0
36.031147836 54.0
36.036071692 44.0
36.040995548 57.0
36.045919404 49.0
36.050843260 52.0
36.055767116 53.0
36.060690972 39.0
36.065614828 55.0
36.070538684 44.0
36.075462540 43.0
36.080386396 37.0
36.085310252 61.0
36.090234108 66.0
36.095157964 50.0
36.100081820 43.0
36.105005676 45.0
36.109929532 47.0
36.114853388 42.0
36.119777244 51.0
36.124701100 62.0
36.129624956 46.0
36.134548812 54.0
36.139472668 32.0
36.144396524 55.0
36.149320380 46.0
36.154244236 40.0
36.159168092 63.0
36.164091948 52.0
36.169015804 56.0
36.173939660 50.0
36.178863516 42.0
36.183787372 51.0
36.188711228 52.0
36.193635084 63.0
36.198558940 47.0
36.203482796 56.0
36.208406652 47.0
36.213330508 47.0
36.218254364 40.0
36.223178220 45.0
36.228102076 44.0
36.233025932 49.0
36.237949788 51.0
36.242873644 56.0
36.247797500 62.0
36.252721357 45.0
36.257645213 53.0
36.262569069 56.0
36.267492925 58.0
36.272416781 58.0
36.277340637 59.0
36.282264493 49.0
36.287188349 60.0
36.292112205 58.0
36.297036061 41.0
36.301959917 47.0
36.306883773 64.0
36.311807629 58.0
36.316731485 55.0
36.321655341 48.0
36.326579197 51.0
36.331503053 49.0
36.336426909 58.0
36.341350765 31.0
36.346274621 63.0
36.351198477 48.0
36.356122333 48.0
36.361046189 44.0
36.365970045 49.0
36.370893901 42.0
36.375817757 44.0
36.380741613 53.0
36.385665469 45.0
36.390589325 53.0
36.395513181 40.0
36.400437037 54.0
36.405360893 48.0
36.410284749 28.0
36.415208605 49.0
36.420132461 52.0
36.425056317 49.0
36.429980173 55.0
36.434904029 53.0
36.439827885 39.0
36.444751741 53.0
36.449675597 49.0
36.454599453 46.0
36.459523309 67.0
36.464447165 52.0
36.469371021 64.0
36.474294877 60.0
36.479218733 44.0
36.484142589 51.0
36.489066445 51.0
36.493990301 58.0
36.498914157 45.0
36.503838013 56.0
36.508761869 51.0
36.513685725 47.0
36.518609581 34.0
36.523533437 50.0
36.528457293 52.0
36.533381149 39.0
36.538305005 49.0
36.543228861 47.0
36.548152717 39.0
36.553076573 52.0
36.558000429 59.0
36.562924285 53.0
36.567848141 43.0
36.572771997 57.0
36.577695853 52.0
36.582619709 46.0
36.587543565 54.0
36.592467421 42.0
36.597391277 54.0
36.602315133 56.0
36.607238989 51.0
36.612162845 54.0
36.617086701 57.0
36.622010557 47.0
36.626934413 40.0
36.631858269 55.0
36.636782125 60.0
36.641705981 55.0
36.646629837 51.0
36.651553693 52.0
36.656477549 39.0
36.661401405 44.0
36.666325261 54.0
36.671249117 49.0
36.676172973 56.0
36.681096829 54.0
36.686020685 52.0
36.690944541 43.0
36.695868397 44.0
36.700792253 52.0
36.705716109 56.0
36.710639965 43.0
36.715563821 54.0
36.720487677 49.0
36.725411533 58.0
36.730335389 48.0
36.735259245 47.0
36.740183101 55.0
36.745106957 53.0
36.750030813 54.0
36.754954670 49.0
36.759878526 46.0
36.764802382 56.0
36.769726238 51.0
36.774650094 51.0
36.779573950 53.0
36.784497806 42.0
36.789421662 50.0
36.794345518 49.0
36.799269374 47.0
36.804193230 48.0
36.809117086 52.0
36.814040942 57.0
36.818964798 51.0
36.823888654 45.0
36.828812510 52.0
36.833736366 57.0
36.838660222 57.0
36.843584078 54.0
36.848507934 57.0
36.853431790 60.0
36.858355646 55.0
36.863279502 47.0
36.868203358 59.0
36.873127214 48.0
36.878051070 53.0
36.882974926 54.0
36.887898782 55.0
36.892822638 52.0
36.897746494 47.0
36.902670350 44.0
36.907594206 79.0
36.912518062 45.0
36.917441918 58.0
36.922365774 61.0
36.927289630 62.0
36.932213486 49.0
36.937137342 53.0
36.942061198 48.0
36.946985054 52.0
36.951908910 59.0
36.956832766 48.0
36.961756622 56.0
36.966680478 47.0
36.971604334 48.0
36.976528190 60.0
36.981452046 62.0
36.986375902 51.0
36.991299758 55.0
36.996223614 58.0
37.001147470 43.0
37.006071326 53.0
37.010995182 54.0
37.015919038 59.0
37.020842894 46.0
37.025766750 64.0
37.030690606 41.0
37.035614462 52.0
37.040538318 61.0
37.045462174 64.0
37.050386030 56.0
37.055309886 58.0
37.060233742 46.0
37.065157598 59.0
37.070081454 55.0
37.075005310 64.0
37.079929166 64.0
37.084853022 63.0
37.089776878 58.0
37.094700734 58.0
37.099624590 49.0
37.104548446 46.0
37.109472302 68.0
37.114396158 67.0
37.119320014 51.0
37.124243870 56.0
37.129167726 57.0
37.134091582 51.0
37.139015438 58.0
37.143939294 54.0
37.148863150 65.0
37.153787006 61.0
37.158710862 50.0
37.163634718 56.0
37.168558574 48.0
37.173482430 64.0
37.178406286 56.0
37.183330142 65.0
37.188253998 49.0
37.193177854 45.0
37.198101710 69.0
37.203025566 43.0
37.207949422 53.0
37.212873278 52.0
37.217797134 58.0
37.222720990 58.0
37.227644846 65.0
37.232568702 63.0
37.237492558 56.0
37.242416414 55.0
37.247340270 58.0
37.252264127 49.0
37.257187983 62.0
37.262111839 61.0
37.267035695 48.0
37.271959551 52.0
37.276883407 48.0
37.281807263 61.0
37.286731119 58.0
37.291654975 65.0
37.296578831 58.0
37.301502687 61.0
37.306426543 57.0
37.311350399 59.0
37.316274255 60.0
37.321198111 59.0
37.326121967 59.0
37.331045823 50.0
37.335969679 54.0
37.340893535 47.0
37.345817391 57.0
37.350741247 69.0
37.355665103 47.0
37.360588959 65.0
37.365512815 58.0
37.370436671 69.0
37.375360527 66.0
37.380284383 72.0
37.385208239 85.0
37.390132095 100.0
37.395055951 105.0
37.399979807 112.0
37.404903663 136.0
37.409827519 146.0
37.414751375 155.0
37.419675231 174.0
37.424599087 180.0
37.429522943 147.0
37.434446799 176.0
37.439370655 137.0
37.444294511 136.0
37.449218367 111.0
37.454142223 94.0
37.459066079 102.0
37.463989935 92.0
37.468913791 81.0
37.473837647 67.0
37.478761503 64.0
37.483685359 75.0
37.488609215 62.0
37.493533071 61.0
37.498456927 81.0
37.503380783 63.0
37.508304639 76.0
37.513228495 53.0
37.518152351 71.0
37.523076207 72.0
37.528000063 64.0
37.532923919 66.0
37.537847775 66.0
37.542771631 67.0
37.547695487 60.0
37.552619343 52.0
37.557543199 65.0
37.562467055 55.0
37.567390911 66.0
37.572314767 71.0
37.577238623 63.0
37.582162479 48.0
37.587086335 63.0
37.592010191 65.0
37.596934047 66.0
37.601857903 65.0
37.606781759 54.0
37.611705615 62.0
37.616629471 64.0
37.621553327 63.0
37.626477183 62.0
37.631401039 81.0
37.636324895 45.0
37.641248751 67.0
37.646172607 68.0
37.651096463 67.0
37.656020319 57.0
37.660944175 63.0
37.665868031 58.0
37.670791887 74.0
37.675715743 48.0
37.680639599 54.0
37.685563455 68.0
37.690487311 59.0
37.695411167 75.0
37.700335023 55.0
37.705258879 63.0
37.710182735 71.0
37.715106591 62.0
37.720030447 49.0
37.724954303 61.0
37.729878159 51.0
37.734802015 75.0
37.739725871 67.0
37.744649727 67.0
37.749573583 63.0
37.754497440 70.0
37.759421296 59.0
37.764345152 64.0
37.769269008 58.0
37.774192864 65.0
37.779116720 64.0
37.784040576 59.0
37.788964432 53.0
37.793888288 58.0
37.798812144 63.0
37.803736000 64.0
37.808659856 71.0
37.813583712 68.0
37.818507568 77.0
37.823431424 62.0
37.828355280 63.0
37.833279136 96.0
37.838202992 73.0
37.843126848 79.0
37.848050704 60.0
37.852974560 64.0
37.857898416 74.0
37.862822272 87.0
37.867746128 54.0
37.872669984 71.0
37.877593840 82.0
37.882517696 69.0
37.887441552 77.0
37.892365408 74.0
37.897289264 74.0
37.902213120 59.0
37.907136976 86.0
37.912060832 61.0
37.916984688 74.0
37.921908544 66.0
37.926832400 69.0
37.931756256 66.0
37.936680112 77.0
37.941603968 72.0
37.946527824 66.0
37.951451680 78.0
37.956375536 76.0
37.961299392 88.0
37.966223248 68.0
37.971147104 84.0
37.976070960 101.0
37.980994816 67.0
37.985918672 73.0
37.990842528 83.0
37.995766384 71.0
38.000690240 84.0
38.005614096 86.0
38.010537952 70.0
38.015461808 107.0
38.020385664 97.0
38.025309520 81.0
38.030233376 100.0
38.035157232 80.0
38.040081088 88.0
38.045004944 85.0
38.049928800 84.0
38.054852656 91.0
38.059776512 93.0
38.064700368 97.0
38.069624224 101.0
38.074548080 84.0
38.079471936 99.0
38.084395792 88.0
38.089319648 96.0
38.094243504 81.0
38.099167360 79.0
38.104091216 76.0
38.109015072 82.0
38.113938928 97.0
38.118862784 104.0
38.123786640 101.0
38.128710496 101.0
38.133634352 107.0
38.138558208 105.0
38.143482064 105.0
38.148405920 111.0
38.153329776 106.0
38.158253632 85.0
38.163177488 113.0
38.168101344 106.0
38.173025200 102.0
38.177949056 91.0
38.182872912 121.0
38.187796768 114.0
38.192720624 118.0
38.197644480 111.0
38.202568336 102.0
38.207492192 105.0
38.212416048 110.0
38.217339904 115.0
38.222263760 105.0
38.227187616 113.0
38.232111472 131.0
38.237035328 112.0
38.241959184 111.0
38.246883040 102.0
38.251806897 141.0
38.256730753 121.0
38.261654609 127.0
38.266578465 149.0
38.271502321 140.0
38.276426177 146.0
38.281350033 139.0
38.286273889 137.0
38.291197745 141.0
38.296121601 152.0
38.301045457 156.0
38.305969313 175.0
38.310893169 142.0
38.315817025 186.0
38.320740881 144.0
38.325664737 181.0
38.330588593 145.0
38.335512449 180.0
38.340436305 173.0
38.345360161 181.0
38.350284017 193.0
38.355207873 174.0
38.360131729 181.0
38.365055585 189.0
38.369979441 195.0
38.374903297 183.0
38.379827153 192.0
38.384751009 229.0
38.389674865 219.0
38.394598721 223.0
38.399522577 209.0
38.404446433 214.0
38.409370289 215.0
38.414294145 205.0
38.419218001 221.0
38.424141857 247.0
38.429065713 244.0
38.433989569 216.0
38.438913425 287.0
38.443837281 256.0
38.448761137 260.0
38.453684993 281.0
38.458608849 281.0
38.463532705 275.0
38.468456561 303.0
38.473380417 299.0
38.478304273 333.0
38.483228129 321.0
38.488151985 324.0
38.493075841 317.0
38.497999697 335.0
38.502923553 339.0
38.507847409 345.0
38.512771265 348.0
38.517695121 344.0
38.522618977 372.0
38.527542833 359.0
38.532466689 410.0
38.537390545 399.0
38.542314401 436.0
38.547238257 458.0
38.552162113 436.0
38.557085969 435.0
38.562009825 477.0
38.566933681 480.0
38.571857537 464.0
38.576781393 502.0
38.581705249 515.0
38.586629105 527.0
38.591552961 554.0
38.596476817 518.0
38.601400673 556.0
38.606324529 528.0
38.611248385 601.0
38.616172241 594.0
38.621096097 578.0
38.626019953 538.0
38.630943809 608.0
38.635867665 649.0
38.640791521 612.0
38.645715377 563.0
38.650639233 590.0
38.655563089 626.0
38.660486945 612.0
38.665410801 667.0
38.670334657 613.0
38.675258513 615.0
38.680182369 695.0
38.685106225 649.0
38.690030081 609.0
38.694953937 739.0
38.699877793 690.0
38.704801649 636.0
38.709725505 695.0
38.714649361 699.0
38.719573217 689.0
38.724497073 713.0
38.729420929 732.0
38.734344785 758.0
38.739268641 750.0
38.744192497 800.0
38.749116353 789.0
38.754040210 782.0
38.758964066 825.0
38.763887922 860.0
38.768811778 847.0
38.773735634 786.0
38.778659490 846.0
38.783583346 867.0
38.788507202 900.0
38.793431058 911.0
38.798354914 874.0
38.803278770 897.0
38.808202626 960.0
38.813126482 974.0
38.818050338 973.0
38.822974194 1001.0
38.827898050 1005.0
38.832821906 1079.0
38.837745762 1002.0
38.842669618 1115.0
38.847593474 1065.0
38.852517330 1068.0
38.857441186 1063.0
38.862365042 1146.0
38.867288898 1143.0
38.872212754 1161.0
38.877136610 1153.0
38.882060466 1242.0
38.886984322 1224.0
38.891908178 1241.0
38.896832034 1221.0
38.901755890 1325.0
38.906679746 1299.0
38.911603602 1337.0
38.916527458 1279.0
38.921451314 1378.0
38.926375170 1380.0
38.931299026 1344.0
38.936222882 1330.0
38.941146738 1418.0
38.946070594 1317.0
38.950994450 1401.0
38.955918306 1438.0
38.960842162 1508.0
38.965766018 1448.0
38.970689874 1467.0
38.975613730 1405.0
38.980537586 1496.0
38.985461442 1433.0
38.990385298 1435.0
38.995309154 1426.0
39.000233010 1482.0
39.005156866 1477.0
39.010080722 1473.0
39.015004578 1541.0
39.019928434 1540.0
39.024852290 1534.0
39.029776146 1518.0
39.034700002 1558.0
39.039623858 1549.0
39.044547714 1567.0
39.049471570 1420.0
39.054395426 1563.0
39.059319282 1578.0
39.064243138 1502.0
39.069166994 1601.0
39.074090850 1530.0
39.079014706 1463.0
39.083938562 1441.0
39.088862418 1443.0
39.093786274 1532.0
39.098710130 1476.0
39.103633986 1434.0
39.108557842 1428.0
39.113481698 1390.0
39.118405554 1340.0
39.123329410 1446.0
39.128253266 1320.0
39.133177122 1425.0
39.138100978 1308.0
39.143024834 1268.0
39.147948690 1389.0
39.152872546 1236.0
39.157796402 1263.0
39.162720258 1294.0
39.167644114 1257.0
39.172567970 1243.0
39.177491826 1248.0
39.182415682 1214.0
39.187339538 1152.0
39.192263394 1145.0
39.197187250 1202.0
39.202111106 1181.0
39.207034962 1109.0
39.211958818 1156.0
39.216882674 1142.0
39.221806530 1109.0
39.226730386 1063.0
39.231654242 1034.0
39.236578098 1152.0
39.241501954 1054.0
39.246425810 1037.0
39.251349667 1033.0
39.256273523 969.0
39.261197379 956.0
39.266121235 945.0
39.271045091 864.0
39.275968947 869.0
39.280892803 867.0
39.285816659 832.0
39.290740515 805.0
39.295664371 860.0
39.300588227 840.0
39.305512083 770.0
39.310435939 782.0
39.315359795 791.0
39.320283651 763.0
39.325207507 759.0
39.330131363 712.0
39.335055219 731.0
39.339979075 718.0
39.344902931 704.0
39.349826787 654.0
39.354750643 645.0
39.359674499 590.0
39.364598355 606.0
39.369522211 589.0
39.374446067 586.0
39.379369923 538.0
39.384293779 558.0
39.389217635 578.0
39.394141491 508.0
39.399065347 531.0
39.403989203 474.0
39.408913059 488.0
39.413836915 485.0
39.418760771 469.0
39.423684627 461.0
39.428608483 487.0
39.433532339 441.0
39.438456195 457.0
39.443380051 413.0
39.448303907 419.0
39.453227763 429.0
39.458151619 412.0
39.463075475 399.0
39.467999331 423.0
39.472923187 360.0
39.477847043 359.0
39.482770899 361.0
39.487694755 324.0
39.492618611 330.0
39.497542467 312.0
39.502466323 320.0
39.507390179 309.0
39.512314035 280.0
39.517237891 301.0
39.522161747 287.0
39.527085603 276.0
39.532009459 272.0
39.536933315 306.0
39.541857171 280.0
39.546781027 234.0
39.551704883 244.0
39.556628739 283.0
39.561552595 259.0
39.566476451 208.0
39.571400307 222.0
39.576324163 209.0
39.581248019 207.0
39.586171875 225.0
39.591095731 200.0
39.596019587 208.0
39.600943443 220.0
39.605867299 193.0
39.610791155 199.0
39.615715011 197.0
39.620638867 183.0
39.625562723 182.0
39.630486579 213.0
39.635410435 172.0
39.640334291 169.0
39.645258147 179.0
39.650182003 179.0
39.655105859 182.0
39.660029715 134.0
39.664953571 158.0
39.669877427 162.0
39.674801283 154.0
39.679725139 157.0
39.684648995 128.0
39.689572851 142.0
39.694496707 164.0
39.699420563 156.0
39.704344419 121.0
39.709268275 152.0
39.714192131 141.0
39.719115987 145.0
39.724039843 120.0
39.728963699 119.0
39.733887555 129.0
39.738811411 123.0
39.743735267 123.0
39.748659123 127.0
39.753582980 120.0
39.758506836 114.0
39.763430692 105.0
39.768354548 121.0
39.773278404 109.0
39.778202260 105.0
39.783126116 111.0
39.788049972 107.0
39.792973828 123.0
39.797897684 122.0
39.802821540 119.0
39.807745396 119.0
39.812669252 111.0
39.817593108 133.0
39.822516964 88.0
39.827440820 101.0
39.832364676 117.0
39.837288532 81.0
39.842212388 98.0
39.847136244 95.0
39.852060100 98.0
39.856983956 102.0
39.861907812 114.0
39.866831668 87.0
39.871755524 87.0
39.876679380 85.0
39.881603236 71.0
39.886527092 79.0
39.891450948 94.0
39.896374804 85.0
39.901298660 99.0
39.906222516 100.0
39.911146372 96.0
39.916070228 87.0
39.920994084 83.0
39.925917940 106.0
39.930841796 96.0
39.935765652 77.0
39.940689508 90.0
39.945613364 83.0
39.950537220 79.0
39.955461076 85.0
39.960384932 77.0
39.965308788 79.0
39.970232644 78.0
39.975156500 84.0
39.980080356 74.0
39.985004212 75.0
39.989928068 71.0
39.994851924 70.0
39.999775780 74.0
40.004699636 82.0
40.009623492 81.0
40.014547348 90.0
40.019471204 72.0
40.024395060 72.0
40.029318916 85.0
40.034242772 82.0
40.039166628 58.0
40.044090484 60.0
40.049014340 79.0
40.053938196 94.0
40.058862052 78.0
40.063785908 78.0
40.068709764 69.0
40.073633620 58.0
40.078557476 97.0
40.083481332 73.0
40.088405188 90.0
40.093329044 70.0
40.098252900 79.0
40.103176756 63.0
40.108100612 80.0
40.113024468 76.0
40.117948324 69.0
40.122872180 64.0
40.127796036 81.0
40.132719892 65.0
40.137643748 82.0
40.142567604 70.0
40.147491460 74.0
40.152415316 75.0
40.157339172 61.0
40.162263028 75.0
40.167186884 76.0
40.172110740 82.0
40.177034596 80.0
40.181958452 72.0
40.186882308 79.0
40.191806164 66.0
40.196730020 62.0
40.201653876 84.0
40.206577732 50.0
40.211501588 69.0
40.216425444 53.0
40.221349300 68.0
40.226273156 69.0
40.231197012 79.0
40.236120868 67.0
40.241044724 73.0
40.245968580 66.0
40.250892437 68.0
40.255816293 76.0
40.260740149 68.0
40.265664005 68.0
40.270587861 64.0
40.275511717 51.0
40.280435573 63.0
40.285359429 54.0
40.290283285 52.0
40.295207141 75.0
40.300130997 48.0
40.305054853 69.0
40.309978709 74.0
40.314902565 65.0
40.319826421 64.0
40.324750277 68.0
40.329674133 59.0
40.334597989 65.0
40.339521845 53.0
40.344445701 65.0
40.349369557 68.0
40.354293413 57.0
40.359217269 75.0
40.364141125 54.0
40.369064981 54.0
40.373988837 60.0
40.378912693 63.0
40.383836549 61.0
40.388760405 84.0
40.393684261 65.0
40.398608117 59.0
40.403531973 71.0
40.408455829 69.0
40.413379685 58.0
40.418303541 66.0
40.423227397 61.0
40.428151253 75.0
40.433075109 64.0
40.437998965 80.0
40.442922821 67.0
40.447846677 51.0
40.452770533 61.0
40.457694389 77.0
40.462618245 61.0
40.467542101 70.0
40.472465957 51.0
40.477389813 66.0
40.482313669 69.0
40.487237525 71.0
40.492161381 71.0
40.497085237 70.0
40.502009093 79.0
40.506932949 70.0
40.511856805 60.0
40.516780661 48.0
40.521704517 91.0
40.526628373 57.0
40.531552229 76.0
40.536476085 65.0
40.541399941 78.0
40.546323797 69.0
40.551247653 58.0
40.556171509 80.0
40.561095365 81.0
40.566019221 52.0
40.570943077 72.0
40.575866933 66.0
40.580790789 66.0
40.585714645 61.0
40.590638501 73.0
40.595562357 69.0
40.600486213 76.0
40.605410069 66.0
40.610333925 79.0
40.615257781 74.0
40.620181637 83.0
40.625105493 76.0
40.630029349 73.0
40.634953205 79.0
40.639877061 74.0
40.644800917 74.0
40.649724773 70.0
40.654648629 75.0
40.659572485 63.0
40.664496341 70.0
40.669420197 75.0
40.674344053 63.0
40.679267909 66.0
40.684191765 71.0
40.689115621 78.0
40.694039477 65.0
40.698963333 67.0
40.703887189 72.0
40.708811045 68.0
40.713734901 67.0
40.718658757 68.0
40.723582613 88.0
40.728506469 73.0
40.733430325 94.0
40.738354181 58.0
40.743278037 69.0
40.748201893 86.0
40.753125750 80.0
40.758049606 60.0
40.762973462 87.0
40.767897318 76.0
40.772821174 68.0
40.777745030 80.0
40.782668886 58.0
40.787592742 78.0
40.792516598 71.0
40.797440454 79.0
40.802364310 69.0
40.807288166 85.0
40.812212022 72.0
40.817135878 75.0
40.822059734 67.0
40.826983590 70.0
40.831907446 75.0
40.836831302 70.0
40.841755158 93.0
40.846679014 81.0
40.851602870 93.0
40.856526726 80.0
40.861450582 85.0
40.866374438 67.0
40.871298294 83.0
40.876222150 69.0
40.881146006 77.0
40.886069862 82.0
40.890993718 86.0
40.895917574 95.0
40.900841430 76.0
40.905765286 64.0
40.910689142 61.0
40.915612998 72.0
40.920536854 70.0
40.925460710 73.0
40.930384566 87.0
40.935308422 70.0
40.940232278 79.0
40.945156134 95.0
40.950079990 63.0
40.955003846 89.0
40.959927702 84.0
40.964851558 87.0
40.969775414 99.0
40.974699270 74.0
40.979623126 97.0
40.984546982 99.0
40.989470838 85.0
40.994394694 84.0
40.999318550 97.0
41.004242406 90.0
41.009166262 86.0
41.014090118 95.0
41.019013974 86.0
41.023937830 71.0
41.028861686 84.0
41.033785542 80.0
41.038709398 89.0
41.043633254 87.0
41.048557110 83.0
41.053480966 87.0
41.058404822 85.0
41.063328678 98.0
41.068252534 82.0
41.073176390 87.0
41.078100246 92.0
41.083024102 97.0
41.087947958 89.0
41.092871814 101.0
41.097795670 99.0
41.102719526 90.0
41.107643382 97.0
41.112567238 118.0
41.117491094 94.0
41.122414950 82.0
41.127338806 98.0
41.132262662 91.0
41.137186518 93.0
41.142110374 102.0
41.147034230 96.0
41.151958086 88.0
41.156881942 86.0
41.161805798 112.0
41.166729654 98.0
41.171653510 99.0
41.176577366 104.0
41.181501222 115.0
41.186425078 92.0
41.191348934 99.0
41.196272790 111.0
41.201196646 89.0
41.206120502 116.0
41.211044358 125.0
41.215968214 114.0
41.220892070 119.0
41.225815926 110.0
41.230739782 129.0
41.235663638 112.0
41.240587494 120.0
41.245511350 127.0
41.250435207 126.0
41.255359063 133.0
41.260282919 129.0
41.265206775 143.0
41.270130631 119.0
41.275054487 120.0
41.279978343 124.0
41.284902199 122.0
41.289826055 135.0
41.294749911 143.0
41.299673767 131.0
41.304597623 145.0
41.309521479 130.0
41.314445335 140.0
41.319369191 155.0
41.324293047 132.0
41.329216903 149.0
41.334140759 163.0
41.339064615 157.0
41.343988471 158.0
41.348912327 188.0
41.353836183 180.0
41.358760039 177.0
41.363683895 197.0
41.368607751 212.0
41.373531607 284.0
41.378455463 294.0
41.383379319 306.0
41.388303175 335.0
41.393227031 390.0
41.398150887 424.0
41.403074743 481.0
41.407998599 449.0
41.412922455 508.0
41.417846311 515.0
41.422770167 566.0
41.427694023 512.0
41.432617879 473.0
41.437541735 479.0
41.442465591 500.0
41.447389447 474.0
41.452313303 422.0
41.457237159 477.0
41.462161015 429.0
41.467084871 461.0
41.472008727 453.0
41.476932583 465.0
41.481856439 511.0
41.486780295 518.0
41.491704151 566.0
41.496628007 564.0
41.501551863 627.0
41.506475719 704.0
41.511399575 702.0
41.516323431 822.0
41.521247287 907.0
41.526171143 1070.0
41.531094999 1208.0
41.536018855 1372.0
41.540942711 1711.0
41.545866567 2074.0
41.550790423 2614.0
41.555714279 3327.0
41.560638135 4377.0
41.565561991 6291.0
41.570485847 9622.0
41.575409703 15561.0
41.580333559 25415.0
41.585257415 35305.0
41.590181271 42640.0
41.595105127 45912.0
41.600028983 45823.0
41.604952839 42047.0
41.609876695 34399.0
41.614800551 24658.0
41.619724407 16479.0
41.624648263 10629.0
41.629572119 7154.0
41.634495975 5119.0
41.639419831 3904.0
41.644343687 3108.0
41.649267543 2730.0
41.654191399 2576.0
41.659115255 2545.0
41.664039111 2734.0
41.668962967 3248.0
41.673886823 4205.0
41.678810679 5913.0
41.683734535 8646.0
41.688658391 12743.0
41.693582247 17060.0
41.698506103 20385.0
41.703429959 22008.0
41.708353815 22048.0
41.713277671 20164.0
41.718201527 16977.0
41.723125383 12696.0
41.728049239 8607.0
41.732973095 5857.0
41.737896951 3811.0
41.742820807 2785.0
41.747744663 2165.0
41.752668520 1663.0
41.757592376 1303.0
41.762516232 1111.0
41.767440088 962.0
41.772363944 863.0
41.777287800 777.0
41.782211656 667.0
41.787135512 602.0
41.792059368 545.0
41.796983224 522.0
41.801907080 502.0
41.806830936 431.0
41.811754792 440.0
41.816678648 392.0
41.821602504 370.0
41.826526360 362.0
41.831450216 358.0
41.836374072 319.0
41.841297928 310.0
41.846221784 282.0
41.851145640 283.0
41.856069496 292.0
41.860993352 257.0
41.865917208 217.0
41.870841064 255.0
41.875764920 203.0
41.880688776 267.0
41.885612632 169.0
41.890536488 149.0
41.895460344 176.0
41.900384200 184.0
41.905308056 157.0
41.910231912 183.0
41.915155768 159.0
41.920079624 178.0
41.925003480 171.0
41.929927336 148.0
41.934851192 139.0
41.939775048 160.0
41.944698904 152.0
41.949622760 141.0
41.954546616 156.0
41.959470472 148.0
41.964394328 158.0
41.969318184 139.0
41.974242040 132.0
41.979165896 137.0
41.984089752 125.0
41.989013608 117.0
41.993937464 138.0
41.998861320 127.0
42.003785176 120.0
42.008709032 101.0
42.013632888 108.0
42.018556744 119.0
42.023480600 125.0
42.028404456 106.0
42.033328312 107.0
42.038252168 119.0
42.043176024 109.0
42.048099880 120.0
42.053023736 115.0
42.057947592 118.0
42.062871448 105.0
42.067795304 99.0
42.072719160 87.0
42.077643016 109.0
42.082566872 90.0
42.087490728 108.0
42.092414584 120.0
42.097338440 101.0
42.102262296 108.0
42.107186152 84.0
42.112110008 91.0
42.117033864 97.0
42.121957720 86.0
42.126881576 97.0
42.131805432 101.0
42.136729288 107.0
42.141653144 75.0
42.146577000 89.0
42.151500856 93.0
42.156424712 87.0
42.161348568 79.0
42.166272424 97.0
42.171196280 93.0
42.176120136 94.0
42.181043992 83.0
42.185967848 90.0
42.190891704 57.0
42.195815560 86.0
42.200739416 84.0
42.205663272 88.0
42.210587128 77.0
42.215510984 77.0
42.220434840 64.0
42.225358696 77.0
42.230282552 86.0
42.235206408 82.0
42.240130264 62.0
42.245054120 92.0
42.249977977 84.0
42.254901833 65.0
42.259825689 98.0
42.264749545 68.0
42.269673401 76.0
42.274597257 87.0
42.279521113 86.0
42.284444969 76.0
42.289368825 85.0
42.294292681 70.0
42.299216537 59.0
42.304140393 79.0
42.309064249 71.0
42.313988105 92.0
42.318911961 83.0
42.323835817 80.0
42.328759673 72.0
42.333683529 79.0
42.338607385 66.0
42.343531241 72.0
42.348455097 58.0
42.353378953 63.0
42.358302809 59.0
42.363226665 64.0
42.368150521 75.0
42.373074377 78.0
42.377998233 55.0
42.382922089 62.0
42.387845945 67.0
42.392769801 70.0
42.397693657 57.0
42.402617513 55.0
42.407541369 65.0
42.412465225 63.0
42.417389081 60.0
42.422312937 73.0
42.427236793 74.0
42.432160649 56.0
42.437084505 81.0
42.442008361 56.0
42.446932217 54.0
42.451856073 53.0
42.456779929 80.0
42.461703785 67.0
42.466627641 64.0
42.471551497 74.0
42.476475353 60.0
42.481399209 57.0
42.486323065 66.0
42.491246921 57.0
42.496170777 57.0
42.501094633 62.0
42.506018489 51.0
42.510942345 71.0
42.515866201 61.0
42.520790057 66.0
42.525713913 59.0
42.530637769 63.0
42.535561625 69.0
42.540485481 71.0
42.545409337 52.0
42.550333193 48.0
42.555257049 89.0
42.560180905 68.0
42.565104761 64.0
42.570028617 66.0
42.574952473 64.0
42.579876329 62.0
42.584800185 74.0
42.589724041 66.0
42.594647897 71.0
42.599571753 57.0
42.604495609 60.0
42.609419465 77.0
42.614343321 58.0
42.619267177 54.0
42.624191033 59.0
42.629114889 68.0
42.634038745 57.0
42.638962601 63.0
42.643886457 81.0
42.648810313 62.0
42.653734169 57.0
42.658658025 58.0
42.663581881 65.0
42.668505737 68.0
42.673429593 60.0
42.678353449 57.0
42.683277305 51.0
42.688201161 55.0
42.693125017 68.0
42.698048873 58.0
42.702972729 71.0
42.707896585 62.0
42.712820441 70.0
42.717744297 54.0
42.722668153 60.0
42.727592009 54.0
42.732515865 46.0
42.737439721 67.0
42.742363577 66.0
42.747287433 64.0
42.752211290 52.0
42.757135146 59.0
42.762059002 56.0
42.766982858 65.0
42.771906714 58.0
42.776830570 53.0
42.781754426 47.0
42.786678282 64.0
42.791602138 51.0
42.796525994 54.0
42.801449850 60.0
42.806373706 55.0
42.811297562 57.0
42.816221418 60.0
42.821145274 55.0
42.826069130 54.0
42.830992986 45.0
42.835916842 59.0
42.840840698 62.0
42.845764554 50.0
42.850688410 52.0
42.855612266 55.0
42.860536122 52.0
42.865459978 71.0
42.870383834 66.0
42.875307690 61.0
42.880231546 53.0
42.885155402 59.0
42.890079258 68.0
42.895003114 50.0
42.899926970 70.0
42.904850826 62.0
42.909774682 60.0
42.914698538 54.0
42.919622394 50.0
42.924546250 72.0
42.929470106 53.0
42.934393962 61.0
42.939317818 54.0
42.944241674 57.0
42.949165530 53.0
42.954089386 50.0
42.959013242 44.0
42.963937098 50.0
42.968860954 49.0
42.973784810 64.0
42.978708666 57.0
42.983632522 43.0
42.988556378 39.0
42.993480234 47.0
42.998404090 46.0
43.003327946 60.0
43.008251802 56.0
43.013175658 68.0
43.018099514 54.0
43.023023370 65.0
43.027947226 52.0
43.032871082 59.0
43.037794938 51.0
43.042718794 43.0
43.047642650 58.0
43.052566506 62.0
43.057490362 64.0
43.062414218 53.0
43.067338074 55.0
43.072261930 49.0
43.077185786 47.0
43.082109642 53.0
43.087033498 59.0
43.091957354 53.0
43.096881210 64.0
43.101805066 56.0
43.106728922 57.0
43.111652778 49.0
43.116576634 54.0
43.121500490 54.0
43.126424346 49.0
43.131348202 56.0
43.136272058 66.0
43.141195914 58.0
43.146119770 46.0
43.151043626 49.0
43.155967482 53.0
43.160891338 58.0
43.165815194 72.0
43.170739050 54.0
43.175662906 39.0
43.180586762 48.0
43.185510618 47.0
43.190434474 58.0
43.195358330 56.0
43.200282186 50.0
43.205206042 51.0
43.210129898 44.0
43.215053754 56.0
43.219977610 54.0
43.224901466 50.0
43.229825322 55.0
43.234749178 44.0
43.239673034 56.0
43.244596890 55.0
43.249520747 60.0
43.254444603 51.0
43.259368459 53.0
43.264292315 61.0
43.269216171 52.0
43.274140027 51.0
43.279063883 52.0
43.283987739 47.0
43.288911595 63.0
43.293835451 51.0
43.298759307 55.0
43.303683163 38.0
43.308607019 61.0
43.313530875 53.0
43.318454731 57.0
43.323378587 48.0
43.328302443 57.0
43.333226299 55.0
43.338150155 52.0
43.343074011 44.0
43.347997867 55.0
43.352921723 60.0
43.357845579 64.0
43.362769435 52.0
43.367693291 60.0
43.372617147 44.0
43.377541003 63.0
43.382464859 56.0
43.387388715 56.0
43.392312571 46.0
43.397236427 55.0
43.402160283 56.0
43.407084139 49.0
43.412007995 56.0
43.416931851 56.0
43.421855707 55.0
43.426779563 41.0
43.431703419 47.0
43.436627275 48.0
43.441551131 53.0
43.446474987 71.0
43.451398843 64.0
43.456322699 53.0
43.461246555 79.0
43.466170411 62.0
43.471094267 59.0
43.476018123 46.0
43.480941979 56.0
43.485865835 64.0
43.490789691 68.0
43.495713547 58.0
43.500637403 57.0
43.505561259 70.0
43.510485115 47.0
43.515408971 62.0
43.520332827 57.0
43.525256683 58.0
43.530180539 55.0
43.535104395 60.0
43.540028251 50.0
43.544952107 56.0
43.549875963 53.0
43.554799819 45.0
43.559723675 60.0
43.564647531 66.0
43.569571387 57.0
43.574495243 54.0
43.579419099 61.0
43.584342955 52.0
43.589266811 55.0
43.594190667 53.0
43.599114523 55.0
43.604038379 61.0
43.608962235 48.0
43.613886091 60.0
43.618809947 69.0
43.623733803 73.0
43.628657659 64.0
43.633581515 55.0
43.638505371 50.0
43.643429227 62.0
43.648353083 56.0
43.653276939 51.0
43.658200795 44.0
43.663124651 52.0
43.668048507 64.0
43.672972363 59.0
43.677896219 51.0
43.682820075 49.0
43.687743931 59.0
43.692667787 56.0
43.697591643 54.0
43.702515499 48.0
43.707439355 40.0
43.712363211 65.0
43.717287067 61.0
43.722210923 48.0
43.727134779 57.0
43.732058635 73.0
43.736982491 55.0
43.741906347 53.0
43.746830203 79.0
43.751754060 59.0
43.756677916 70.0
43.761601772 57.0
43.766525628 53.0
43.771449484 79.0
43.776373340 55.0
43.781297196 62.0
43.786221052 74.0
43.791144908 69.0
43.796068764 65.0
43.800992620 55.0
43.805916476 46.0
43.810840332 60.0
43.815764188 48.0
43.820688044 54.0
43.825611900 71.0
43.830535756 61.0
43.835459612 61.0
43.840383468 54.0
43.845307324 56.0
43.850231180 59.0
43.855155036 54.0
43.860078892 63.0
43.865002748 55.0
43.869926604 50.0
43.874850460 59.0
43.879774316 57.0
43.884698172 56.0
43.889622028 58.0
43.894545884 68.0
43.899469740 60.0
43.904393596 86.0
43.909317452 48.0
43.914241308 65.0
43.919165164 58.0
43.924089020 62.0
43.929012876 58.0
43.933936732 68.0
43.938860588 58.0
43.943784444 60.0
43.948708300 56.0
43.953632156 65.0
43.958556012 70.0
43.963479868 55.0
43.968403724 58.0
43.973327580 57.0
43.978251436 67.0
43.983175292 73.0
43.988099148 73.0
43.993023004 55.0
43.997946860 66.0
44.002870716 82.0
44.007794572 53.0
44.012718428 64.0
44.017642284 75.0
44.022566140 71.0
44.027489996 65.0
44.032413852 71.0
44.037337708 89.0
44.042261564 84.0
44.047185420 53.0
44.052109276 62.0
44.057033132 65.0
44.061956988 76.0
44.066880844 65.0
44.071804700 52.0
44.076728556 63.0
44.081652412 82.0
44.086576268 76.0
44.091500124 75.0
44.096423980 65.0
44.101347836 79.0
44.106271692 86.0
44.111195548 81.0
44.116119404 63.0
44.121043260 75.0
44.125967116 80.0
44.130890972 53.0
44.135814828 61.0
44.140738684 64.0
44.145662540 79.0
44.150586396 75.0
44.155510252 52.0
44.160434108 82.0
44.165357964 87.0
44.170281820 90.0
44.175205676 77.0
44.180129532 87.0
44.185053388 79.0
44.189977244 85.0
44.194901100 88.0
44.199824956 86.0
44.204748812 77.0
44.209672668 82.0
44.214596524 99.0
44.219520380 96.0
44.224444236 98.0
44.229368092 90.0
44.234291948 76.0
44.239215804 95.0
44.244139660 85.0
44.249063517 88.0
44.253987373 77.0
44.258911229 98.0
44.263835085 94.0
44.268758941 98.0
44.273682797 95.0
44.278606653 102.0
44.283530509 112.0
44.288454365 106.0
44.293378221 101.0
44.298302077 108.0
44.303225933 111.0
44.308149789 104.0
44.313073645 123.0
44.317997501 83.0
44.322921357 125.0
44.327845213 109.0
44.332769069 121.0
44.337692925 135.0
44.342616781 114.0
44.347540637 108.0
44.352464493 121.0
44.357388349 128.0
44.362312205 108.0
44.367236061 118.0
44.372159917 112.0
44.377083773 111.0
44.382007629 124.0
44.386931485 121.0
44.391855341 129.0
44.396779197 110.0
44.401703053 122.0
44.406626909 118.0
44.411550765 128.0
44.416474621 117.0
44.421398477 133.0
44.426322333 120.0
44.431246189 136.0
44.436170045 141.0
44.441093901 107.0
44.446017757 117.0
44.450941613 114.0
44.455865469 96.0
44.460789325 113.0
44.465713181 118.0
44.470637037 123.0
44.475560893 138.0
44.480484749 92.0
44.485408605 93.0
44.490332461 103.0
44.495256317 99.0
44.500180173 100.0
44.505104029 94.0
44.510027885 98.0
44.514951741 122.0
44.519875597 108.0
44.524799453 95.0
44.529723309 109.0
44.534647165 99.0
44.539571021 101.0
44.544494877 90.0
44.549418733 91.0
44.554342589 101.0
44.559266445 86.0
44.564190301 90.0
44.569114157 79.0
44.574038013 71.0
44.578961869 101.0
44.583885725 103.0
44.588809581 87.0
44.593733437 89.0
44.598657293 74.0
44.603581149 72.0
44.608505005 75.0
44.613428861 79.0
44.618352717 65.0
44.623276573 78.0
44.628200429 85.0
44.633124285 80.0
44.638048141 82.0
44.642971997 77.0
44.647895853 90.0
44.652819709 62.0
44.657743565 57.0
44.662667421 72.0
44.667591277 68.0
44.672515133 66.0
44.677438989 66.0
44.682362845 67.0
44.687286701 71.0
44.692210557 62.0
44.697134413 53.0
44.702058269 78.0
44.706982125 92.0
44.711905981 66.0
44.716829837 73.0
44.721753693 56.0
44.726677549 66.0
44.731601405 62.0
44.736525261 68.0
44.741449117 70.0
44.746372973 67.0
44.751296830 65.0
44.756220686 57.0
44.761144542 44.0
44.766068398 62.0
44.770992254 61.0
44.775916110 60.0
44.780839966 58.0
44.785763822 50.0
44.790687678 68.0
44.795611534 83.0
44.800535390 66.0
44.805459246 56.0
44.810383102 60.0
44.815306958 66.0
44.820230814 58.0
44.825154670 69.0
44.830078526 55.0
44.835002382 62.0
44.839926238 45.0
44.844850094 63.0
44.849773950 60.0
44.854697806 68.0
44.859621662 58.0
44.864545518 62.0
44.869469374 57.0
44.874393230 64.0
44.879317086 61.0
44.884240942 64.0
44.889164798 65.0
44.894088654 56.0
44.899012510 57.0
44.903936366 55.0
44.908860222 62.0
44.913784078 55.0
44.918707934 58.0
44.923631790 56.0
44.928555646 47.0
44.933479502 63.0
44.938403358 63.0
44.943327214 50.0
44.948251070 53.0
44.953174926 63.0
44.958098782 64.0
44.963022638 49.0
44.967946494 47.0
44.972870350 49.0
44.977794206 56.0
44.982718062 53.0
44.987641918 66.0
44.992565774 63.0
44.997489630 70.0
