##TITLE= W6910m-3mm-270824
##JCAMP-DX= 4.24
##DATA TYPE= UV/VIS SPECTRUM
##ORIGIN=  Lambda-SPX/P Scan
##OWNER= Optiplex/OPTIPLEX-755
##DATE= 27.08.2024 16:00:02
##SPECTROMETER/DATA SYSTEM= Lambda 19 UV/Vis/NIR
##SAMPLE DESCRIPTION= 270824
##DELTAX= 0.5
##XUNITS= NANOMETERS
##YUNITS= TRANSMITTANCE
$$COMMENT= RTUNITS 0-1
##XFACTOR= 1.0
##YFACTOR= 0.01
##FIRSTX= 200
##LASTX= 2800
##NPOINTS= 5201
##FIRSTY= 0.00012
##MAXY= 0.277876
##MINY= -0.000013
##XYDATA= (XY..XY)
200 0.012049
200.5 0.010507
201 0.012045
201.5 0.010674
202 0.014645
202.5 0.007789
203 0.015655
203.5 0.003204
204 0.013443
204.5 0.009071
205 0.013938
205.5 0.010247
206 0.013071
206.5 0.013409
207 0.003958
207.5 0.012174
208 0.005629
208.5 0.01921
209 0.012077
209.5 0.010551
210 0.001504
210.5 0.011687
211 0.009134
211.5 0.011209
212 0.012878
212.5 0.009811
213 0.013036
213.5 0.012583
214 0.012589
214.5 0.003994
215 0.016771
215.5 0.008251
216 0.014626
216.5 0.009729
217 0.009305
217.5 0.013392
218 0.00918
218.5 0.014236
219 -0.001343
219.5 0.019612
220 0.003953
220.5 0.013016
221 -0.000645
221.5 0.011171
222 0.005686
222.5 0.020486
223 0.009494
223.5 0.006815
224 0.014315
224.5 0.01315
225 0.014955
225.5 0.008083
226 0.015966
226.5 0.012248
227 0.012018
227.5 0.014084
228 0.004747
228.5 0.023896
229 0.008707
229.5 0.018233
230 0.004992
230.5 0.023033
231 0.004453
231.5 0.019794
232 0.012179
232.5 0.012339
233 0.014762
233.5 0.022458
234 0.019271
234.5 0.009936
235 0.023506
235.5 0.015917
236 0.024325
236.5 0.022291
237 0.019039
237.5 0.023329
238 0.020798
238.5 0.026881
239 0.014378
239.5 0.032204
240 0.012012
240.5 0.023938
241 0.011078
241.5 0.023372
242 0.016853
242.5 0.024942
243 0.018555
243.5 0.01309
244 0.022358
244.5 0.017462
245 0.021879
245.5 0.011686
246 0.020924
246.5 0.019011
247 0.022605
247.5 0.01965
248 0.014558
248.5 0.024124
249 0.012176
249.5 0.024376
250 0.010393
250.5 0.024913
251 0.014398
251.5 0.022924
252 0.015982
252.5 0.012507
253 0.020052
253.5 0.016428
254 0.021052
254.5 0.008512
255 0.02
255.5 0.00817
256 0.020193
256.5 0.014628
257 0.012489
257.5 0.015706
258 0.014145
258.5 0.018989
259 0.013334
259.5 0.020979
260 0.010496
260.5 0.018731
261 0.01484
261.5 0.016673
262 0.013827
262.5 0.016717
263 0.013287
263.5 0.010684
264 0.018967
264.5 0.00745
265 0.018213
265.5 0.016024
266 0.015208
266.5 0.008412
267 0.018936
267.5 0.012766
268 0.015166
268.5 0.012193
269 0.013832
269.5 0.016031
270 0.018797
270.5 0.016609
271 0.010014
271.5 0.017079
272 0.015865
272.5 0.013479
273 0.015731
273.5 0.014028
274 0.019062
274.5 0.014068
275 0.017393
275.5 0.005057
276 0.020522
276.5 0.00935
277 0.018884
277.5 0.005171
278 0.016561
278.5 0.010384
279 0.017251
279.5 0.012344
280 0.009613
280.5 0.013743
281 0.018129
281.5 0.013756
282 0.010843
282.5 0.018714
283 0.011156
283.5 0.013886
284 0.014594
284.5 0.010977
285 0.019531
285.5 0.015738
286 0.018233
286.5 0.005823
287 0.020343
287.5 0.003
288 0.016789
288.5 0.010553
289 0.016696
289.5 0.015295
290 0.021514
290.5 0.015342
291 0.006578
291.5 0.01701
292 0.014165
292.5 0.01737
293 0.014998
293.5 0.015512
294 0.018764
294.5 0.018959
295 0.020442
295.5 0.008231
296 0.028964
296.5 0.009136
297 0.021163
297.5 0.007612
298 0.021441
298.5 0.010249
299 0.020996
299.5 0.015321
300 0.009637
300.5 0.021882
301 0.013443
301.5 0.022333
302 0.010756
302.5 0.019337
303 0.017111
303.5 0.019841
304 0.021301
304.5 0.015765
305 0.028158
305.5 0.02126
306 0.027864
306.5 0.014653
307 0.031919
307.5 0.014757
308 0.028994
308.5 0.020764
309 0.02159
309.5 0.026094
310 0.026209
310.5 0.027679
311 0.020445
311.5 0.030264
312 0.020159
312.5 0.031641
313 0.03204
313.5 0.028426
314 0.029965
314.5 0.034093
315 0.036746
315.5 0.030127
316 0.044871
316.5 0.035484
317 0.045564
317.5 0.04297
318 0.045486
318.5 0.035202
319 0.029522
319.5 0.048947
320 0.059033
320.5 0.055376
321 0.052033
321.5 0.060452
322 0.056567
322.5 0.068867
323 0.066321
323.5 0.073727
324 0.070558
324.5 0.074114
325 0.083047
325.5 0.077932
326 0.090933
326.5 0.087182
327 0.095983
327.5 0.092278
328 0.112021
328.5 0.100638
329 0.114002
329.5 0.105895
330 0.112376
330.5 0.119719
331 0.121965
331.5 0.136179
332 0.128886
332.5 0.138543
333 0.135683
333.5 0.152629
334 0.153048
334.5 0.159459
335 0.163427
335.5 0.170423
336 0.173853
336.5 0.179272
337 0.188951
337.5 0.19217
338 0.200895
338.5 0.207523
339 0.214561
339.5 0.211976
340 0.228001
340.5 0.236427
341 0.236195
341.5 0.247943
342 0.253516
342.5 0.269077
343 0.270955
343.5 0.279886
344 0.280009
344.5 0.301588
345 0.298236
345.5 0.310454
346 0.312501
346.5 0.321806
347 0.340349
347.5 0.351456
348 0.355035
348.5 0.350917
349 0.380717
349.5 0.374391
350 0.3895
350.5 0.388786
351 0.40786
351.5 0.42188
352 0.432491
352.5 0.431996
353 0.435013
353.5 0.467066
354 0.459218
354.5 0.482729
355 0.478615
355.5 0.500623
356 0.503671
356.5 0.522529
357 0.532829
357.5 0.538951
358 0.553957
358.5 0.567571
359 0.580549
359.5 0.578382
360 0.60713
360.5 0.608002
361 0.620883
361.5 0.641423
362 0.642609
362.5 0.664288
363 0.676057
363.5 0.689209
364 0.689492
364.5 0.724784
365 0.719707
365.5 0.759871
366 0.752484
366.5 0.783415
367 0.800204
367.5 0.824588
368 0.853948
368.5 0.845286
369 0.899897
369.5 0.913936
370 0.950986
370.5 0.978952
371 1.028013
371.5 1.044713
372 1.10866
372.5 1.125345
373 1.161855
373.5 1.219372
374 1.248534
374.5 1.321755
375 1.358701
375.5 1.422441
376 1.477698
376.5 1.5365
377 1.590395
377.5 1.65823
378 1.694695
378.5 1.790551
379 1.865363
379.5 1.993609
380 2.068524
380.5 2.174785
381 2.258249
381.5 2.368471
382 2.445015
382.5 2.575061
383 2.689699
383.5 2.808337
384 2.933953
384.5 3.072991
385 3.196521
385.5 3.338502
386 3.503502
386.5 3.601456
387 3.784399
387.5 3.961483
388 4.10241
388.5 4.272177
389 4.453997
389.5 4.59711
390 4.78762
390.5 4.980771
391 5.103303
391.5 5.296485
392 5.47298
392.5 5.645091
393 5.749249
393.5 5.920977
394 6.04195
394.5 6.151643
395 6.3118
395.5 6.416807
396 6.549725
396.5 6.655001
397 6.735898
397.5 6.816378
398 6.882541
398.5 6.91957
399 7.006165
399.5 6.998129
400 7.02623
400.5 7.054485
401 7.064722
401.5 7.063174
402 7.110507
402.5 7.102831
403 7.062414
403.5 7.052461
404 6.998082
404.5 6.99278
405 7.034426
405.5 6.963096
406 6.907325
406.5 6.871837
407 6.852815
407.5 6.78581
408 6.734213
408.5 6.653578
409 6.633604
409.5 6.597613
410 6.546127
410.5 6.499351
411 6.456845
411.5 6.405106
412 6.339225
412.5 6.301118
413 6.246195
413.5 6.236977
414 6.139944
414.5 6.104537
415 6.033552
415.5 6.030413
416 5.939053
416.5 5.902751
417 5.870211
417.5 5.803069
418 5.771775
418.5 5.718766
419 5.692909
419.5 5.612759
420 5.55976
420.5 5.531128
421 5.454987
421.5 5.401715
422 5.346197
422.5 5.325287
423 5.307434
423.5 5.201082
424 5.157811
424.5 5.142126
425 5.101546
425.5 5.026765
426 5.002614
426.5 4.946816
427 4.902052
427.5 4.846052
428 4.817354
428.5 4.738569
429 4.708031
429.5 4.673453
430 4.627027
430.5 4.591921
431 4.527589
431.5 4.514547
432 4.422414
432.5 4.40812
433 4.402976
433.5 4.325009
434 4.296445
434.5 4.262947
435 4.223152
435.5 4.205128
436 4.146154
436.5 4.124603
437 4.096726
437.5 4.049985
438 4.041329
438.5 3.982973
439 3.980112
439.5 3.926783
440 3.921336
440.5 3.921505
441 3.856028
441.5 3.866583
442 3.814659
442.5 3.809661
443 3.796626
443.5 3.784031
444 3.781019
444.5 3.761623
445 3.756347
445.5 3.751717
446 3.723749
446.5 3.700671
447 3.695684
447.5 3.696872
448 3.703829
448.5 3.687997
449 3.701475
449.5 3.675748
450 3.699041
450.5 3.688562
451 3.694914
451.5 3.69691
452 3.702748
452.5 3.69696
453 3.674564
453.5 3.703029
454 3.717163
454.5 3.746725
455 3.7365
455.5 3.736533
456 3.767807
456.5 3.781081
457 3.793417
457.5 3.826194
458 3.809134
458.5 3.839947
459 3.884309
459.5 3.892933
460 3.931177
460.5 3.91609
461 3.974441
461.5 3.970135
462 4.001312
462.5 4.035007
463 4.028028
463.5 4.063649
464 4.10015
464.5 4.125649
465 4.150832
465.5 4.177018
466 4.212093
466.5 4.237653
467 4.246599
467.5 4.289129
468 4.324713
468.5 4.355849
469 4.417016
469.5 4.417843
470 4.438344
470.5 4.466791
471 4.517545
471.5 4.553544
472 4.569222
472.5 4.609781
473 4.640195
473.5 4.694847
474 4.721765
474.5 4.773529
475 4.811469
475.5 4.841622
476 4.886324
476.5 4.935018
477 4.969519
477.5 5.032273
478 5.054872
478.5 5.095728
479 5.145437
479.5 5.200516
480 5.258103
480.5 5.2974
481 5.341185
481.5 5.416199
482 5.426384
482.5 5.47893
483 5.533989
483.5 5.600926
484 5.645756
484.5 5.697392
485 5.75471
485.5 5.816017
486 5.855541
486.5 5.930877
487 5.979207
487.5 6.02723
488 6.086711
488.5 6.123197
489 6.200215
489.5 6.242546
490 6.309096
490.5 6.341568
491 6.399563
491.5 6.432086
492 6.520548
492.5 6.547531
493 6.597707
493.5 6.645548
494 6.690323
494.5 6.722223
495 6.799883
495.5 6.846133
496 6.895445
496.5 6.920752
497 6.971022
497.5 7.02059
498 7.069918
498.5 7.106135
499 7.163941
499.5 7.180453
500 7.248527
500.5 7.294789
501 7.348438
501.5 7.372665
502 7.422075
502.5 7.454709
503 7.508741
503.5 7.551992
504 7.583971
504.5 7.642814
505 7.664043
505.5 7.726578
506 7.731275
506.5 7.813424
507 7.853813
507.5 7.903662
508 7.943613
508.5 7.992482
509 8.041456
509.5 8.084047
510 8.125255
510.5 8.166102
511 8.24203
511.5 8.288492
512 8.343939
512.5 8.400132
513 8.45553
513.5 8.518007
514 8.559981
514.5 8.633722
515 8.651243
515.5 8.743197
516 8.772767
516.5 8.817298
517 8.850519
517.5 8.903585
518 8.967581
518.5 8.997632
519 9.049439
519.5 9.0933
520 9.147162
520.5 9.193113
521 9.226662
521.5 9.274793
522 9.293744
522.5 9.351112
523 9.386555
523.5 9.42618
524 9.425937
524.5 9.47653
525 9.530109
525.5 9.547857
526 9.543992
526.5 9.596694
527 9.618788
527.5 9.645506
528 9.686166
528.5 9.687216
529 9.724546
529.5 9.717826
530 9.753341
530.5 9.758792
531 9.75126
531.5 9.779909
532 9.803778
532.5 9.815403
533 9.833866
533.5 9.841911
534 9.831708
534.5 9.843149
535 9.827299
535.5 9.867997
536 9.854534
536.5 9.848646
537 9.863118
537.5 9.861534
538 9.856385
538.5 9.883769
539 9.856891
539.5 9.832972
540 9.872465
540.5 9.841191
541 9.876341
541.5 9.8265
542 9.86392
542.5 9.853941
543 9.819406
543.5 9.810697
544 9.792606
544.5 9.801695
545 9.765018
545.5 9.78848
546 9.770846
546.5 9.748961
547 9.752203
547.5 9.750073
548 9.725539
548.5 9.718888
549 9.692006
549.5 9.683023
550 9.696045
550.5 9.656125
551 9.652071
551.5 9.6502
552 9.629159
552.5 9.633287
553 9.58842
553.5 9.585156
554 9.567202
554.5 9.535573
555 9.528968
555.5 9.520156
556 9.490854
556.5 9.47072
557 9.46758
557.5 9.443402
558 9.397323
558.5 9.437387
559 9.403418
559.5 9.389757
560 9.348572
560.5 9.320221
561 9.31066
561.5 9.292801
562 9.305327
562.5 9.219825
563 9.210698
563.5 9.206745
564 9.165879
564.5 9.15333
565 9.128266
565.5 9.125455
566 9.097079
566.5 9.082793
567 9.071285
567.5 9.062847
568 9.028984
568.5 9.003596
569 9.009738
569.5 8.975527
570 8.976328
570.5 8.947949
571 8.914521
571.5 8.90452
572 8.878229
572.5 8.851619
573 8.825313
573.5 8.831409
574 8.808898
574.5 8.808781
575 8.771922
575.5 8.767217
576 8.73164
576.5 8.738471
577 8.719902
577.5 8.703925
578 8.685146
578.5 8.680218
579 8.660659
579.5 8.625421
580 8.619048
580.5 8.60876
581 8.586752
581.5 8.57754
582 8.555817
582.5 8.557121
583 8.550593
583.5 8.53108
584 8.503035
584.5 8.502336
585 8.463229
585.5 8.452873
586 8.448737
586.5 8.433056
587 8.414998
587.5 8.406483
588 8.390905
588.5 8.384474
589 8.379949
589.5 8.350088
590 8.345187
590.5 8.342256
591 8.307088
591.5 8.290239
592 8.291791
592.5 8.294142
593 8.278334
593.5 8.249997
594 8.248608
594.5 8.241031
595 8.217905
595.5 8.222929
596 8.195922
596.5 8.195726
597 8.160163
597.5 8.165265
598 8.178937
598.5 8.150011
599 8.151145
599.5 8.138619
600 8.114026
600.5 8.104689
601 8.117208
601.5 8.098248
602 8.082096
602.5 8.080889
603 8.056461
603.5 8.059575
604 8.059201
604.5 8.053243
605 8.028527
605.5 8.045786
606 8.027415
606.5 8.02284
607 8.016971
607.5 8.022486
608 7.994705
608.5 8.007989
609 7.980175
609.5 7.977678
610 7.981428
610.5 7.971948
611 7.959455
611.5 7.931198
612 7.951658
612.5 7.951301
613 7.945319
613.5 7.936471
614 7.934442
614.5 7.93087
615 7.933587
615.5 7.917956
616 7.921513
616.5 7.912157
617 7.890173
617.5 7.907723
618 7.897989
618.5 7.892654
619 7.887619
619.5 7.892428
620 7.884875
620.5 7.878925
621 7.881138
621.5 7.874038
622 7.878301
622.5 7.852599
623 7.884148
623.5 7.874097
624 7.887061
624.5 7.864381
625 7.862328
625.5 7.869334
626 7.861249
626.5 7.857627
627 7.846338
627.5 7.846109
628 7.844284
628.5 7.856368
629 7.847261
629.5 7.856359
630 7.862533
630.5 7.84071
631 7.858806
631.5 7.837494
632 7.861274
632.5 7.849821
633 7.856489
633.5 7.861929
634 7.855365
634.5 7.84755
635 7.872514
635.5 7.849627
636 7.860354
636.5 7.868268
637 7.835018
637.5 7.870308
638 7.861798
638.5 7.866422
639 7.862075
639.5 7.872489
640 7.865757
640.5 7.85713
641 7.881699
641.5 7.882942
642 7.88029
642.5 7.852753
643 7.886516
643.5 7.8711
644 7.879569
644.5 7.890493
645 7.893462
645.5 7.880818
646 7.878961
646.5 7.886931
647 7.884495
647.5 7.894713
648 7.873475
648.5 7.898475
649 7.899331
649.5 7.891613
650 7.902826
650.5 7.911835
651 7.899735
651.5 7.904969
652 7.9114
652.5 7.907986
653 7.907107
653.5 7.914486
654 7.917091
654.5 7.924707
655 7.92565
655.5 7.927626
656 7.93035
656.5 7.931098
657 7.93092
657.5 7.94579
658 7.926162
658.5 7.93997
659 7.940324
659.5 7.956582
660 7.96424
660.5 7.957894
661 7.968427
661.5 7.943599
662 7.954674
662.5 7.965779
663 7.958511
663.5 7.959788
664 7.958886
664.5 7.967101
665 7.979069
665.5 7.961418
666 7.973929
666.5 7.987171
667 7.975107
667.5 7.987207
668 7.995837
668.5 8.006436
669 8.000326
669.5 8.019988
670 8.010494
670.5 8.015076
671 8.029791
671.5 8.008083
672 8.031316
672.5 8.026115
673 8.020809
673.5 8.028352
674 8.039318
674.5 8.031287
675 8.029389
675.5 8.040934
676 8.061656
676.5 8.057272
677 8.072013
677.5 8.063398
678 8.055412
678.5 8.083834
679 8.076838
679.5 8.078588
680 8.083928
680.5 8.10312
681 8.085291
681.5 8.12026
682 8.110563
682.5 8.098725
683 8.12292
683.5 8.116902
684 8.118682
684.5 8.123872
685 8.13707
685.5 8.145449
686 8.146501
686.5 8.14292
687 8.146288
687.5 8.153156
688 8.157615
688.5 8.164213
689 8.142344
689.5 8.17493
690 8.177197
690.5 8.199973
691 8.202545
691.5 8.194077
692 8.203965
692.5 8.236293
693 8.195286
693.5 8.22738
694 8.234032
694.5 8.222152
695 8.226635
695.5 8.264786
696 8.239081
696.5 8.259284
697 8.279252
697.5 8.268927
698 8.266163
698.5 8.250921
699 8.297384
699.5 8.288687
700 8.30273
700.5 8.306643
701 8.3115
701.5 8.319495
702 8.325683
702.5 8.320016
703 8.325598
703.5 8.340292
704 8.334766
704.5 8.37734
705 8.343513
705.5 8.353228
706 8.382113
706.5 8.391734
707 8.383615
707.5 8.408719
708 8.399817
708.5 8.378085
709 8.423276
709.5 8.412186
710 8.432529
710.5 8.430686
711 8.431904
711.5 8.46321
712 8.447085
712.5 8.466475
713 8.459616
713.5 8.488014
714 8.494035
714.5 8.506479
715 8.485329
715.5 8.505291
716 8.506229
716.5 8.525134
717 8.551524
717.5 8.539223
718 8.541753
718.5 8.548051
719 8.564124
719.5 8.578733
720 8.573735
720.5 8.601938
721 8.584258
721.5 8.596971
722 8.618768
722.5 8.603609
723 8.630847
723.5 8.628554
724 8.656569
724.5 8.662063
725 8.670031
725.5 8.662665
726 8.687697
726.5 8.682696
727 8.690935
727.5 8.686236
728 8.695035
728.5 8.712472
729 8.756012
729.5 8.714379
730 8.730764
730.5 8.766991
731 8.772668
731.5 8.774345
732 8.798216
732.5 8.776668
733 8.824623
733.5 8.81074
734 8.808985
734.5 8.8098
735 8.850437
735.5 8.846859
736 8.849764
736.5 8.872569
737 8.855459
737.5 8.900011
738 8.867843
738.5 8.900072
739 8.914249
739.5 8.942872
740 8.928995
740.5 8.951286
741 8.970885
741.5 8.946265
742 8.957691
742.5 8.998545
743 8.997142
743.5 9.037694
744 8.987574
744.5 9.052321
745 9.041721
745.5 9.036175
746 9.039187
746.5 9.065754
747 9.063841
747.5 9.074058
748 9.074312
748.5 9.125949
749 9.080065
749.5 9.106236
750 9.133204
750.5 9.139486
751 9.160116
751.5 9.126514
752 9.161165
752.5 9.222397
753 9.179047
753.5 9.191321
754 9.193558
754.5 9.234753
755 9.232266
755.5 9.250224
756 9.257297
756.5 9.252229
757 9.279962
757.5 9.303568
758 9.292505
758.5 9.320178
759 9.32572
759.5 9.335469
760 9.363348
760.5 9.35031
761 9.373589
761.5 9.368609
762 9.384023
762.5 9.429094
763 9.412163
763.5 9.407859
764 9.424245
764.5 9.430141
765 9.438992
765.5 9.474252
766 9.48406
766.5 9.500817
767 9.471624
767.5 9.528551
768 9.48912
768.5 9.526312
769 9.538759
769.5 9.556504
770 9.563475
770.5 9.576906
771 9.592451
771.5 9.603186
772 9.647477
772.5 9.609327
773 9.596777
773.5 9.652525
774 9.645128
774.5 9.692442
775 9.646463
775.5 9.639458
776 9.65177
776.5 9.702868
777 9.727762
777.5 9.699458
778 9.736042
778.5 9.754022
779 9.778795
779.5 9.752262
780 9.786636
780.5 9.76668
781 9.828853
781.5 9.823917
782 9.794471
782.5 9.824289
783 9.840357
783.5 9.882995
784 9.891254
784.5 9.857466
785 9.912074
785.5 9.90283
786 9.913315
786.5 9.921866
787 9.914365
787.5 9.968045
788 9.948616
788.5 9.976922
789 10.010164
789.5 9.981016
790 10.019306
790.5 9.998843
791 10.037266
791.5 10.07257
792 10.035171
792.5 10.074254
793 10.075513
793.5 10.082778
794 10.114507
794.5 10.111279
795 10.133193
795.5 10.115872
796 10.133634
796.5 10.156082
797 10.225765
797.5 10.151368
798 10.130863
798.5 10.221866
799 10.213891
799.5 10.242209
800 10.214462
800.5 10.196505
801 10.244347
801.5 10.231511
802 10.277385
802.5 10.271873
803 10.320606
803.5 10.302807
804 10.335008
804.5 10.306314
805 10.343242
805.5 10.348166
806 10.36121
806.5 10.396792
807 10.403471
807.5 10.364886
808 10.354993
808.5 10.425552
809 10.424668
809.5 10.398503
810 10.430454
810.5 10.481092
811 10.473303
811.5 10.47444
812 10.493628
812.5 10.477129
813 10.529923
813.5 10.52274
814 10.543439
814.5 10.526077
815 10.496998
815.5 10.611272
816 10.599402
816.5 10.568007
817 10.579097
817.5 10.607746
818 10.604417
818.5 10.627221
819 10.623112
819.5 10.663105
820 10.619629
820.5 10.673633
821 10.679676
821.5 10.638747
822 10.684942
822.5 10.68356
823 10.702092
823.5 10.679199
824 10.674629
824.5 10.727598
825 10.666882
825.5 10.669198
826 10.731576
826.5 10.743656
827 10.674673
827.5 10.797993
828 10.784404
828.5 10.784412
829 10.742209
829.5 10.795221
830 10.746709
830.5 10.75426
831 10.788856
831.5 10.79879
832 10.763989
832.5 10.792791
833 10.752208
833.5 10.80891
834 10.80569
834.5 10.809126
835 10.770912
835.5 10.828058
836 10.851597
836.5 10.867997
837 10.7691
837.5 10.778578
838 10.812321
838.5 10.819045
839 10.82188
839.5 10.865459
840 10.849118
840.5 10.80095
841 10.819145
841.5 10.825168
842 10.842899
842.5 10.809642
843 10.846781
843.5 10.880798
844 10.822416
844.5 10.805709
845 10.804016
845.5 10.843959
846 10.891461
846.5 10.908707
847 10.888646
847.5 10.90285
848 10.883075
848.5 10.944164
849 10.884501
849.5 10.911649
850 10.967977
850.5 10.893234
851 10.954534
851.5 10.891915
852 10.871747
852.5 10.860589
853 10.924339
853.5 10.838573
854 10.946442
854.5 10.926873
855 10.977476
855.5 10.876616
856 10.941022
856.5 11.002242
857 11.079112
857.5 10.881274
858 11.043721
858.5 11.020302
859 10.978325
859.5 11.083786
860 11.096452
860.5 10.965351
861 8.668739
861.5 8.506481
862 8.549631
862.5 8.497068
863 8.658673
863.5 8.587189
864 8.607893
864.5 8.54942
865 8.418363
865.5 8.696017
866 8.522635
866.5 8.655002
867 8.418041
867.5 8.748801
868 8.564454
868.5 8.804359
869 8.728636
869.5 8.720855
870 8.737268
870.5 8.682904
871 8.760819
871.5 8.660008
872 8.804363
872.5 8.653595
873 8.751
873.5 8.727559
874 8.696332
874.5 8.743137
875 8.753492
875.5 8.831889
876 8.620241
876.5 8.956981
877 8.632655
877.5 8.870275
878 8.724106
878.5 8.854851
879 8.752177
879.5 8.873704
880 8.9052
880.5 8.770485
881 8.986071
881.5 8.787826
882 8.975029
882.5 8.815315
883 8.992989
883.5 8.85736
884 8.988628
884.5 8.87671
885 8.830987
885.5 8.986154
886 8.836129
886.5 9.068862
887 8.805277
887.5 9.004633
888 8.808514
888.5 9.04376
889 8.911683
889.5 8.956605
890 8.948864
890.5 8.905679
891 9.025698
891.5 9.008037
892 9.160418
892.5 8.915326
893 9.108749
893.5 8.978966
894 9.081006
894.5 9.051266
895 9.051431
895.5 9.161069
896 8.950895
896.5 9.156013
897 8.87988
897.5 9.13972
898 8.877299
898.5 9.139425
899 8.981675
899.5 9.144548
900 9.106498
900.5 9.073762
901 9.229489
901.5 9.055328
902 9.270901
902.5 9.09531
903 9.206829
903.5 9.074941
904 9.186246
904.5 9.147713
905 9.225699
905.5 9.236086
906 9.128914
906.5 9.325711
907 9.116188
907.5 9.26349
908 9.073579
908.5 9.291661
909 9.096279
909.5 9.228589
910 9.181492
910.5 9.110582
911 9.275587
911.5 9.148408
912 9.352352
912.5 9.041602
913 9.407229
913.5 9.242842
914 9.300473
914.5 9.235207
915 9.346262
915.5 9.29799
916 9.321675
916.5 9.361085
917 9.259814
917.5 9.460792
918 9.243546
918.5 9.337
919 9.277968
919.5 9.315503
920 9.353077
920.5 9.328676
921 9.342687
921.5 9.105141
922 9.40002
922.5 9.258668
923 9.398475
923.5 9.253816
924 9.476201
924.5 9.336361
925 9.44394
925.5 9.381571
926 9.393774
926.5 9.424493
927 9.38308
927.5 9.518308
928 9.310459
928.5 9.525105
929 9.399141
929.5 9.460683
930 9.454138
930.5 9.430353
931 9.516317
931.5 9.429166
932 9.493975
932.5 9.268615
933 9.5496
933.5 9.336104
934 9.501002
934.5 9.380554
935 9.539726
935.5 9.374198
936 9.591975
936.5 9.525809
937 9.526737
937.5 9.519038
938 9.42027
938.5 9.575916
939 9.458578
939.5 9.642469
940 9.549912
940.5 9.566302
941 9.522003
941.5 9.501275
942 9.620615
942.5 9.47542
943 9.566665
943.5 9.379791
944 9.653584
944.5 9.349798
945 9.635073
945.5 9.554252
946 9.631131
946.5 9.542181
947 9.521893
947.5 9.653524
948 9.504412
948.5 9.719206
949 9.466823
949.5 9.671196
950 9.583784
950.5 9.621197
951 9.684677
951.5 9.639782
952 9.668691
952.5 9.496503
953 9.707177
953.5 9.479278
954 9.750596
954.5 9.472501
955 9.644779
955.5 9.574067
956 9.614883
956.5 9.714078
957 9.606767
957.5 9.646281
958 9.552058
958.5 9.752723
959 9.611212
959.5 9.817248
960 9.603328
960.5 9.74704
961 9.611918
961.5 9.656917
962 9.720524
962.5 9.538954
963 9.806372
963.5 9.581134
964 9.786497
964.5 9.588727
965 9.797951
965.5 9.679005
966 9.684103
966.5 9.694871
967 9.614501
967.5 9.788917
968 9.627904
968.5 9.790007
969 9.596801
969.5 9.795787
970 9.706414
970.5 9.772061
971 9.775204
971.5 9.770142
972 9.849313
972.5 9.622116
973 9.891272
973.5 9.660455
974 9.841321
974.5 9.761292
975 9.747725
975.5 9.666152
976 9.741715
976.5 9.808319
977 9.720071
977.5 9.775706
978 9.60547
978.5 9.847545
979 9.693756
979.5 9.773441
980 9.632201
980.5 9.857804
981 9.773321
981.5 9.812351
982 9.812986
982.5 9.826336
983 9.874003
983.5 9.792409
984 9.861639
984.5 9.741463
985 9.911546
985.5 9.828839
986 9.855742
986.5 9.831085
987 9.722654
987.5 9.77618
988 9.871425
988.5 9.855504
989 9.727947
989.5 9.951529
990 9.751286
990.5 9.956977
991 9.736517
991.5 9.793536
992 9.846886
992.5 9.951095
993 9.840301
993.5 9.865066
994 9.918919
994.5 9.75542
995 9.887692
995.5 9.825319
996 9.867053
996.5 9.918601
997 9.951106
997.5 9.823956
998 9.711003
998.5 9.97925
999 9.790548
999.5 9.988888
1000 9.683907
1000.5 9.955711
1001 9.661046
1001.5 9.987411
1002 9.903385
1002.5 9.973679
1003 9.889016
1003.5 9.807275
1004 9.878118
1004.5 9.831703
1005 9.974562
1005.5 9.805015
1006 9.99165
1006.5 9.875213
1007 9.871832
1007.5 9.899902
1008 9.969345
1008.5 9.936772
1009 9.865987
1009.5 10.002888
1010 9.721815
1010.5 10.046912
1011 9.823604
1011.5 10.010266
1012 9.853271
1012.5 10.033888
1013 9.907393
1013.5 9.822363
1014 9.947402
1014.5 9.860995
1015 10.023396
1015.5 9.913265
1016 10.067698
1016.5 9.952
1017 9.992054
1017.5 9.95105
1018 9.962464
1018.5 10.065078
1019 9.802152
1019.5 10.071485
1020 9.852201
1020.5 10.090055
1021 9.775996
1021.5 10.017654
1022 9.878765
1022.5 10.000783
1023 9.928615
1023.5 9.90898
1024 9.99312
1024.5 9.910101
1025 10.067242
1025.5 9.817876
1026 10.000498
1026.5 9.972749
1027 10.06227
1027.5 9.932317
1028 10.001962
1028.5 10.115704
1029 9.97277
1029.5 10.160715
1030 9.870841
1030.5 10.008903
1031 9.919575
1031.5 10.008138
1032 9.92002
1032.5 10.011675
1033 10.169867
1033.5 10.027514
1034 10.025632
1034.5 9.764287
1035 10.042843
1035.5 10.068089
1036 10.072836
1036.5 9.920957
1037 10.082415
1037.5 10.052212
1038 10.208686
1038.5 10.073774
1039 10.013253
1039.5 10.106546
1040 10.018106
1040.5 10.101005
1041 9.988827
1041.5 10.060905
1042 9.994742
1042.5 10.073025
1043 10.056547
1043.5 10.026135
1044 10.145507
1044.5 10.102247
1045 10.104614
1045.5 9.87967
1046 10.07964
1046.5 9.979282
1047 10.206754
1047.5 9.965044
1048 10.049234
1048.5 10.008395
1049 10.189303
1049.5 10.140375
1050 10.107896
1050.5 10.134984
1051 9.998038
1051.5 10.075482
1052 9.926874
1052.5 10.051867
1053 10.161686
1053.5 10.168688
1054 10.029411
1054.5 9.992212
1055 10.165811
1055.5 10.068902
1056 10.205751
1056.5 9.876426
1057 10.124077
1057.5 9.90506
1058 10.143965
1058.5 10.094941
1059 10.242334
1059.5 10.177401
1060 10.076659
1060.5 10.181416
1061 10.050511
1061.5 10.187011
1062 9.978262
1062.5 10.170154
1063 10.128563
1063.5 10.111796
1064 10.190267
1064.5 10.137548
1065 10.12231
1065.5 10.007241
1066 10.13871
1066.5 10.033959
1067 10.277166
1067.5 9.997588
1068 10.179294
1068.5 10.065077
1069 10.18514
1069.5 10.112312
1070 10.105461
1070.5 10.085325
1071 9.955342
1071.5 10.292276
1072 10.090414
1072.5 10.203202
1073 10.02043
1073.5 10.188004
1074 10.161451
1074.5 10.12629
1075 10.248408
1075.5 10.101677
1076 10.264942
1076.5 9.986684
1077 10.234621
1077.5 9.950641
1078 10.232568
1078.5 10.173009
1079 10.190576
1079.5 10.147052
1080 10.176938
1080.5 10.261009
1081 10.111424
1081.5 10.222136
1082 9.937252
1082.5 10.318196
1083 10.192423
1083.5 10.351039
1084 10.143849
1084.5 10.130577
1085 10.249221
1085.5 10.112707
1086 10.26618
1086.5 10.130627
1087 10.383589
1087.5 10.114975
1088 10.221545
1088.5 10.088693
1089 10.165811
1089.5 10.20362
1090 10.113056
1090.5 10.098655
1091 9.991345
1091.5 10.302691
1092 10.161793
1092.5 10.32104
1093 10.053258
1093.5 10.28307
1094 10.122433
1094.5 10.246586
1095 10.228983
1095.5 10.180941
1096 10.245789
1096.5 10.143505
1097 10.373902
1097.5 10.188529
1098 10.292433
1098.5 10.155222
1099 10.38169
1099.5 10.216169
1100 10.187833
1100.5 10.24218
1101 10.187659
1101.5 10.217191
1102 10.015144
1102.5 10.279286
1103 10.08084
1103.5 10.307005
1104 10.212247
1104.5 10.255241
1105 10.172468
1105.5 10.242717
1106 10.350129
1106.5 10.24725
1107 10.310552
1107.5 10.219729
1108 10.356621
1108.5 10.248917
1109 10.278226
1109.5 10.256499
1110 10.33031
1110.5 10.297877
1111 10.145969
1111.5 10.33334
1112 10.212915
1112.5 10.421326
1113 10.108428
1113.5 10.327685
1114 10.109061
1114.5 10.261464
1115 10.260971
1115.5 10.264885
1116 10.243259
1116.5 10.228742
1117 10.307958
1117.5 10.220346
1118 10.378902
1118.5 10.186588
1119 10.321029
1119.5 10.196713
1120 10.256
1120.5 10.310957
1121 10.17224
1121.5 10.301004
1122 10.164276
1122.5 10.454714
1123 10.152952
1123.5 10.403218
1124 10.219187
1124.5 10.302364
1125 10.194719
1125.5 10.317688
1126 10.273924
1126.5 10.282862
1127 10.40193
1127.5 10.183034
1128 10.392134
1128.5 10.307436
1129 10.570816
1129.5 10.358332
1130 10.482202
1130.5 10.285882
1131 10.228017
1131.5 10.38542
1132 10.194475
1132.5 10.209988
1133 9.984252
1133.5 10.22772
1134 10.085398
1134.5 10.320519
1135 10.332505
1135.5 10.319054
1136 10.325061
1136.5 10.234767
1137 10.396618
1137.5 10.238735
1138 10.388609
1138.5 10.235528
1139 10.446889
1139.5 10.288497
1140 10.335258
1140.5 10.317194
1141 10.267999
1141.5 10.458655
1142 10.19782
1142.5 10.417681
1143 10.164335
1143.5 10.367601
1144 10.207655
1144.5 10.364731
1145 10.233402
1145.5 10.242534
1146 10.199507
1146.5 10.278736
1147 10.34634
1147.5 10.135043
1148 10.366008
1148.5 10.274945
1149 10.422448
1149.5 10.270188
1150 10.421427
1150.5 10.239127
1151 10.358676
1151.5 10.320495
1152 10.287928
1152.5 10.449499
1153 10.279497
1153.5 10.42356
1154 10.227171
1154.5 10.474084
1155 10.307935
1155.5 10.310665
1156 10.324599
1156.5 10.241444
1157 10.429224
1157.5 10.368236
1158 10.43418
1158.5 10.221153
1159 10.449589
1159.5 10.341869
1160 10.46717
1160.5 10.297613
1161 10.400458
1161.5 10.394754
1162 10.3806
1162.5 10.430189
1163 10.321844
1163.5 10.500938
1164 10.33265
1164.5 10.362154
1165 10.310376
1165.5 10.427177
1166 10.383913
1166.5 10.403818
1167 10.393275
1167.5 10.229513
1168 10.432462
1168.5 10.315801
1169 10.425237
1169.5 10.211359
1170 10.466065
1170.5 10.2747
1171 10.464969
1171.5 10.408276
1172 10.402665
1172.5 10.371923
1173 10.315027
1173.5 10.473547
1174 10.392906
1174.5 10.506582
1175 10.337013
1175.5 10.466796
1176 10.32444
1176.5 10.369064
1177 10.434601
1177.5 10.433038
1178 10.453602
1178.5 10.242292
1179 10.44416
1179.5 10.265383
1180 10.483502
1180.5 10.289394
1181 10.423538
1181.5 10.404667
1182 10.441893
1182.5 10.434435
1183 10.354887
1183.5 10.38618
1184 10.355099
1184.5 10.473088
1185 10.318571
1185.5 10.431027
1186 10.350835
1186.5 10.390002
1187 10.381444
1187.5 10.269403
1188 10.403962
1188.5 10.158024
1189 10.393406
1189.5 10.012601
1190 10.181884
1190.5 10.441916
1191 10.381455
1191.5 10.441382
1192 10.211666
1192.5 10.435874
1193 10.215122
1193.5 10.486055
1194 10.324664
1194.5 10.436834
1195 10.346609
1195.5 10.43985
1196 10.458641
1196.5 10.367549
1197 10.432877
1197.5 10.284358
1198 10.529992
1198.5 10.363878
1199 10.510593
1199.5 10.390245
1200 10.458459
1200.5 10.510806
1201 10.335425
1201.5 10.487625
1202 10.326257
1202.5 10.501668
1203 10.290925
1203.5 10.485648
1204 10.294148
1204.5 10.513237
1205 10.34143
1205.5 10.449062
1206 10.374559
1206.5 10.252126
1207 10.460872
1207.5 10.398978
1208 10.468768
1208.5 10.326432
1209 10.514405
1209.5 10.44387
1210 10.468126
1210.5 10.440143
1211 10.390639
1211.5 10.533584
1212 10.429983
1212.5 10.538133
1213 10.333619
1213.5 10.561542
1214 10.360856
1214.5 10.488269
1215 10.328557
1215.5 10.40981
1216 10.565222
1216.5 10.443072
1217 10.507812
1217.5 10.22476
1218 10.600401
1218.5 10.447004
1219 10.505895
1219.5 10.394117
1220 10.55508
1220.5 10.462154
1221 10.411214
1221.5 10.492651
1222 10.444853
1222.5 10.665487
1223 10.403483
1223.5 10.531545
1224 10.346052
1224.5 10.486786
1225 10.439498
1225.5 10.393907
1226 10.3988
1226.5 10.278419
1227 10.582609
1227.5 10.450655
1228 10.555098
1228.5 10.265091
1229 10.602405
1229.5 10.470548
1230 10.567968
1230.5 10.459901
1231 10.455677
1231.5 10.487647
1232 10.590749
1232.5 10.579456
1233 10.469588
1233.5 10.563122
1234 10.479219
1234.5 10.596143
1235 10.43409
1235.5 10.475969
1236 10.49969
1236.5 10.512926
1237 10.51105
1237.5 10.352936
1238 10.6177
1238.5 10.370596
1239 10.583787
1239.5 10.393389
1240 10.644624
1240.5 10.440949
1241 10.626518
1241.5 10.561086
1242 10.496069
1242.5 10.596562
1243 10.434486
1243.5 10.567502
1244 10.468155
1244.5 10.635136
1245 10.502968
1245.5 10.590674
1246 10.573424
1246.5 10.514442
1247 10.570852
1247.5 10.433669
1248 10.585724
1248.5 10.424925
1249 10.595264
1249.5 10.342824
1250 10.560893
1250.5 10.389352
1251 10.539715
1251.5 10.468671
1252 10.506129
1252.5 10.589521
1253 10.478404
1253.5 10.582442
1254 10.421995
1254.5 10.647891
1255 10.528582
1255.5 10.575371
1256 10.64667
1256.5 10.613744
1257 10.535283
1257.5 10.496781
1258 10.693965
1258.5 10.403706
1259 10.659081
1259.5 10.433457
1260 10.606855
1260.5 10.475652
1261 10.660595
1261.5 10.543696
1262 10.577735
1262.5 10.590309
1263 10.431568
1263.5 10.653608
1264 10.51645
1264.5 10.721673
1265 10.506418
1265.5 10.664028
1266 10.520205
1266.5 10.618674
1267 10.646152
1267.5 10.49642
1268 10.640635
1268.5 10.510365
1269 10.77124
1269.5 10.454979
1270 10.677712
1270.5 10.491805
1271 10.611025
1271.5 10.553192
1272 10.550477
1272.5 10.643753
1273 10.570995
1273.5 10.660174
1274 10.495923
1274.5 10.691509
1275 10.544275
1275.5 10.670786
1276 10.495205
1276.5 10.659622
1277 10.660639
1277.5 10.618292
1278 10.605978
1278.5 10.560324
1279 10.746852
1279.5 10.593881
1280 10.629147
1280.5 10.576254
1281 10.642494
1281.5 10.624459
1282 10.68099
1282.5 10.631794
1283 10.492597
1283.5 10.721877
1284 10.6141
1284.5 10.675401
1285 10.449374
1285.5 10.724621
1286 10.523178
1286.5 10.692697
1287 10.566593
1287.5 10.593976
1288 10.688923
1288.5 10.657756
1289 10.724316
1289.5 10.603517
1290 10.738495
1290.5 10.544663
1291 10.649214
1291.5 10.583128
1292 10.560924
1292.5 10.6681
1293 10.658584
1293.5 10.750233
1294 10.513581
1294.5 10.715911
1295 10.493766
1295.5 10.736658
1296 10.530559
1296.5 10.730252
1297 10.584708
1297.5 10.786221
1298 10.672258
1298.5 10.625484
1299 10.71687
1299.5 10.581348
1300 10.76042
1300.5 10.636543
1301 10.743154
1301.5 10.602649
1302 10.661432
1302.5 10.629334
1303 10.638738
1303.5 10.722825
1304 10.650197
1304.5 10.772135
1305 10.539479
1305.5 10.721076
1306 10.457661
1306.5 10.700245
1307 10.591824
1307.5 10.646725
1308 10.659171
1308.5 10.584876
1309 10.758939
1309.5 10.638272
1310 10.778915
1310.5 10.583571
1311 10.754824
1311.5 10.583822
1312 10.729069
1312.5 10.713928
1313 10.72553
1313.5 10.725385
1314 10.589228
1314.5 10.774684
1315 10.590816
1315.5 10.710008
1316 10.522376
1316.5 10.761817
1317 10.618784
1317.5 10.710311
1318 10.6838
1318.5 10.627746
1319 10.696059
1319.5 10.663004
1320 10.809963
1320.5 10.700712
1321 10.78117
1321.5 10.668465
1322 10.77514
1322.5 10.776046
1323 10.723856
1323.5 10.828466
1324 10.729543
1324.5 10.876763
1325 10.651958
1325.5 10.86863
1326 10.638159
1326.5 10.972896
1327 10.781847
1327.5 10.809996
1328 10.681579
1328.5 10.619481
1329 10.810979
1329.5 10.614587
1330 10.773006
1330.5 10.554744
1331 10.769885
1331.5 10.703866
1332 10.721552
1332.5 10.70082
1333 10.789998
1333.5 10.80594
1334 10.719958
1334.5 10.748386
1335 10.625396
1335.5 10.834266
1336 10.727502
1336.5 10.776711
1337 10.671838
1337.5 10.780946
1338 10.711616
1338.5 10.759207
1339 10.757697
1339.5 10.614727
1340 10.829501
1340.5 10.797042
1341 10.847363
1341.5 10.69617
1342 10.84763
1342.5 10.729509
1343 10.919363
1343.5 10.770416
1344 10.666118
1344.5 10.692714
1345 10.722975
1345.5 10.695913
1346 10.633027
1346.5 10.732347
1347 10.705987
1347.5 10.957076
1348 10.953346
1348.5 10.913764
1349 10.796993
1349.5 10.786495
1350 10.881007
1350.5 10.776775
1351 10.839415
1351.5 10.596487
1352 10.853516
1352.5 10.774329
1353 10.836433
1353.5 10.723772
1354 10.711323
1354.5 10.880021
1355 10.981438
1355.5 11.023215
1356 10.803489
1356.5 10.907993
1357 10.852613
1357.5 11.010496
1358 10.87762
1358.5 10.886781
1359 10.692368
1359.5 10.679698
1360 10.805377
1360.5 10.543559
1361 10.576186
1361.5 10.575705
1362 11.068324
1362.5 11.093781
1363 10.902305
1363.5 10.514858
1364 10.631864
1364.5 11.020266
1365 10.979977
1365.5 11.272865
1366 10.692353
1366.5 10.651566
1367 10.421646
1367.5 11.000276
1368 10.944892
1368.5 11.105092
1369 10.927277
1369.5 10.748059
1370 10.757592
1370.5 10.761742
1371 11.086686
1371.5 10.84305
1372 11.156689
1372.5 10.88569
1373 11.013064
1373.5 10.773153
1374 10.809399
1374.5 10.861525
1375 10.684636
1375.5 10.833293
1376 10.800917
1376.5 11.065473
1377 10.843797
1377.5 10.912695
1378 10.79988
1378.5 11.150596
1379 10.92622
1379.5 10.580537
1380 10.825093
1380.5 11.052725
1381 10.914914
1381.5 10.390469
1382 10.679755
1382.5 10.868049
1383 11.281202
1383.5 10.979313
1384 10.838173
1384.5 11.028273
1385 11.023676
1385.5 11.153921
1386 10.932205
1386.5 10.839178
1387 10.454559
1387.5 10.901213
1388 11.168951
1388.5 11.227948
1389 11.041404
1389.5 11.036418
1390 11.068851
1390.5 10.946519
1391 10.877518
1391.5 10.593005
1392 11.109424
1392.5 11.194436
1393 11.195492
1393.5 10.809415
1394 10.59216
1394.5 10.714757
1395 10.903014
1395.5 11.094156
1396 10.988294
1396.5 11.304144
1397 11.274587
1397.5 11.05911
1398 10.801374
1398.5 10.852382
1399 10.604753
1399.5 10.731976
1400 10.947838
1400.5 11.10684
1401 11.31707
1401.5 11.320023
1402 11.182329
1402.5 10.856607
1403 10.923113
1403.5 10.685098
1404 10.827161
1404.5 10.95851
1405 11.139933
1405.5 11.101739
1406 10.774653
1406.5 11.037569
1407 11.0496
1407.5 11.350041
1408 10.780465
1408.5 10.917378
1409 11.07404
1409.5 11.407071
1410 11.215788
1410.5 11.075652
1411 11.010626
1411.5 10.893156
1412 11.072695
1412.5 10.828391
1413 10.818182
1413.5 10.800907
1414 11.137946
1414.5 11.217149
1415 11.337328
1415.5 11.178975
1416 10.834347
1416.5 10.977195
1417 10.920783
1417.5 10.942104
1418 10.670853
1418.5 11.107595
1419 10.982653
1419.5 11.176909
1420 11.101991
1420.5 11.138624
1421 11.126859
1421.5 10.919521
1422 10.991651
1422.5 10.969893
1423 11.321415
1423.5 11.145728
1424 11.260758
1424.5 11.053861
1425 11.038408
1425.5 11.119862
1426 10.959986
1426.5 11.037148
1427 10.915784
1427.5 11.182857
1428 10.982505
1428.5 11.197809
1429 10.880671
1429.5 11.015942
1430 10.848717
1430.5 11.007288
1431 11.08724
1431.5 11.162516
1432 11.326442
1432.5 10.97288
1433 11.198787
1433.5 10.987084
1434 11.294993
1434.5 11.132783
1435 11.090493
1435.5 11.075916
1436 10.979084
1436.5 11.167439
1437 11.081241
1437.5 11.30345
1438 11.079539
1438.5 11.252891
1439 11.079036
1439.5 11.18389
1440 11.066863
1440.5 11.172704
1441 11.16828
1441.5 11.140756
1442 11.21695
1442.5 11.152708
1443 11.291137
1443.5 11.028285
1444 11.0513
1444.5 10.985805
1445 11.213797
1445.5 11.363041
1446 11.357719
1446.5 11.341418
1447 11.157513
1447.5 11.335456
1448 11.191904
1448.5 11.327358
1449 11.14153
1449.5 11.139707
1450 11.194523
1450.5 11.344838
1451 11.336327
1451.5 11.229096
1452 11.245983
1452.5 11.018019
1453 11.319898
1453.5 11.07966
1454 11.209945
1454.5 11.130234
1455 11.348019
1455.5 11.215519
1456 11.230236
1456.5 11.210991
1457 11.189676
1457.5 11.278332
1458 11.097737
1458.5 11.250433
1459 11.092342
1459.5 11.234817
1460 11.211774
1460.5 11.241328
1461 11.156975
1461.5 11.056877
1462 11.236461
1462.5 11.171909
1463 11.250968
1463.5 11.032172
1464 11.34887
1464.5 11.119813
1465 11.3529
1465.5 11.251172
1466 11.394675
1466.5 11.41372
1467 11.383636
1467.5 11.42638
1468 11.239182
1468.5 11.255407
1469 11.149758
1469.5 11.371461
1470 11.264125
1470.5 11.364905
1471 11.44909
1471.5 11.313145
1472 11.358784
1472.5 11.240514
1473 11.398646
1473.5 11.200364
1474 11.370928
1474.5 11.054177
1475 11.38209
1475.5 11.23234
1476 11.449774
1476.5 11.357685
1477 11.466763
1477.5 11.496462
1478 11.391217
1478.5 11.500683
1479 11.25761
1479.5 11.493032
1480 11.329454
1480.5 11.406823
1481 11.376106
1481.5 11.386485
1482 11.396088
1482.5 11.305972
1483 11.396661
1483.5 11.139817
1484 11.461676
1484.5 11.159202
1485 11.423589
1485.5 11.350845
1486 11.410918
1486.5 11.297663
1487 11.356331
1487.5 11.398643
1488 11.365447
1488.5 11.399706
1489 11.219057
1489.5 11.439508
1490 11.363011
1490.5 11.417473
1491 11.291504
1491.5 11.441329
1492 11.461999
1492.5 11.383773
1493 11.563696
1493.5 11.3322
1494 11.544411
1494.5 11.527985
1495 11.583068
1495.5 11.488004
1496 11.659154
1496.5 11.516045
1497 11.477701
1497.5 11.459801
1498 11.290558
1498.5 11.442178
1499 11.395312
1499.5 11.561282
1500 11.387806
1500.5 11.408813
1501 11.396601
1501.5 11.463033
1502 11.519384
1502.5 11.415365
1503 11.623786
1503.5 11.457809
1504 11.64118
1504.5 11.428994
1505 11.619022
1505.5 11.51877
1506 11.601012
1506.5 11.584522
1507 11.579937
1507.5 11.552278
1508 11.548021
1508.5 11.462473
1509 11.40076
1509.5 11.572839
1510 11.456025
1510.5 11.623879
1511 11.425719
1511.5 11.650578
1512 11.521327
1512.5 11.496477
1513 11.542009
1513.5 11.538131
1514 11.673781
1514.5 11.577158
1515 11.70409
1515.5 11.637218
1516 11.733803
1516.5 11.582401
1517 11.628204
1517.5 11.558247
1518 11.41608
1518.5 11.582065
1519 11.570543
1519.5 11.568664
1520 11.357509
1520.5 11.643559
1521 11.401609
1521.5 11.690632
1522 11.58513
1522.5 11.629754
1523 11.650743
1523.5 11.601182
1524 11.69189
1524.5 11.531234
1525 11.812302
1525.5 11.570708
1526 11.699963
1526.5 11.753034
1527 11.674183
1527.5 11.747116
1528 11.818995
1528.5 11.902646
1529 11.65512
1529.5 11.812732
1530 11.547207
1530.5 11.737008
1531 11.501893
1531.5 11.720359
1532 11.551714
1532.5 11.747506
1533 11.640252
1533.5 11.6684
1534 11.699256
1534.5 11.565869
1535 11.796866
1535.5 11.631861
1536 11.721762
1536.5 11.630256
1537 11.822386
1537.5 11.772993
1538 11.61124
1538.5 11.803463
1539 11.722285
1539.5 11.863638
1540 11.661761
1540.5 11.897982
1541 11.693689
1541.5 11.964635
1542 11.838483
1542.5 11.951024
1543 11.747976
1543.5 11.699335
1544 11.784983
1544.5 11.673665
1545 11.807702
1545.5 11.55731
1546 11.810248
1546.5 11.753608
1547 11.872983
1547.5 11.737607
1548 11.845876
1548.5 11.816803
1549 11.734175
1549.5 11.942147
1550 11.691587
1550.5 11.960308
1551 11.742384
1551.5 11.953179
1552 11.707298
1552.5 12.048039
1553 11.921516
1553.5 11.959952
1554 11.847579
1554.5 11.720307
1555 11.867511
1555.5 11.83738
1556 11.878324
1556.5 11.649553
1557 11.959441
1557.5 11.775988
1558 11.893542
1558.5 11.879864
1559 11.869553
1559.5 11.966622
1560 11.81619
1560.5 12.066814
1561 11.856577
1561.5 11.991802
1562 11.934271
1562.5 12.014224
1563 11.975238
1563.5 12.02555
1564 12.008411
1564.5 11.853821
1565 11.96051
1565.5 11.764558
1566 11.94986
1566.5 11.854461
1567 11.901754
1567.5 11.85611
1568 11.997063
1568.5 11.920198
1569 11.971252
1569.5 11.9849
1570 11.970983
1570.5 12.066163
1571 11.895503
1571.5 12.021829
1572 11.914951
1572.5 12.014161
1573 12.018792
1573.5 12.13015
1574 12.074792
1574.5 12.07537
1575 12.296671
1575.5 12.029906
1576 11.995184
1576.5 11.880381
1577 12.09658
1577.5 11.875276
1578 11.997461
1578.5 11.945131
1579 12.025903
1579.5 11.988574
1580 12.058075
1580.5 12.054656
1581 12.0272
1581.5 12.094869
1582 12.033304
1582.5 12.187359
1583 12.019286
1583.5 12.085518
1584 12.148639
1584.5 12.115635
1585 12.185717
1585.5 12.077203
1586 12.347616
1586.5 12.074843
1587 12.325271
1587.5 11.833655
1588 12.086586
1588.5 11.954394
1589 12.157545
1589.5 12.052738
1590 12.134405
1590.5 12.133377
1591 12.042263
1591.5 12.14425
1592 12.116183
1592.5 12.221232
1593 12.081714
1593.5 12.296505
1594 12.225287
1594.5 12.269993
1595 12.279621
1595.5 12.18728
1596 12.393378
1596.5 12.084706
1597 12.223347
1597.5 12.001453
1598 12.24883
1598.5 12.014505
1599 12.168016
1599.5 12.110437
1600 12.192954
1600.5 12.200262
1601 12.207993
1601.5 12.247429
1602 12.025993
1602.5 12.282146
1603 12.174907
1603.5 12.332782
1604 12.210456
1604.5 12.343801
1605 12.243444
1605.5 12.305555
1606 12.476563
1606.5 12.27728
1607 12.548992
1607.5 12.222846
1608 12.329484
1608.5 12.124714
1609 12.347267
1609.5 12.306367
1610 12.225849
1610.5 12.240095
1611 12.230706
1611.5 12.359931
1612 12.296066
1612.5 12.32987
1613 12.157305
1613.5 12.398575
1614 12.251598
1614.5 12.50094
1615 12.363511
1615.5 12.496126
1616 12.46465
1616.5 12.299678
1617 12.429908
1617.5 12.340268
1618 12.404062
1618.5 12.335494
1619 12.445684
1619.5 12.295444
1620 12.435855
1620.5 12.401401
1621 12.383822
1621.5 12.344311
1622 12.223439
1622.5 12.413283
1623 12.309255
1623.5 12.485345
1624 12.269088
1624.5 12.454408
1625 12.291998
1625.5 12.480769
1626 12.361812
1626.5 12.422034
1627 12.51979
1627.5 12.450262
1628 12.538435
1628.5 12.487981
1629 12.622447
1629.5 12.498246
1630 12.661333
1630.5 12.576465
1631 12.580515
1631.5 12.537189
1632 12.514214
1632.5 12.472461
1633 12.370691
1633.5 12.606022
1634 12.307061
1634.5 12.593052
1635 12.365014
1635.5 12.565641
1636 12.474913
1636.5 12.510751
1637 12.556034
1637.5 12.474646
1638 12.599857
1638.5 12.484763
1639 12.762377
1639.5 12.615415
1640 12.703702
1640.5 12.540059
1641 12.530464
1641.5 12.540036
1642 12.504528
1642.5 12.65952
1643 12.475616
1643.5 12.667948
1644 12.44445
1644.5 12.606059
1645 12.394572
1645.5 12.667082
1646 12.51016
1646.5 12.586235
1647 12.554187
1647.5 12.541044
1648 12.661622
1648.5 12.629317
1649 12.826119
1649.5 12.568596
1650 12.798063
1650.5 12.709673
1651 12.842271
1651.5 12.649214
1652 12.684737
1652.5 12.719426
1653 12.541701
1653.5 12.728296
1654 12.518069
1654.5 12.754424
1655 12.579854
1655.5 12.760174
1656 12.58485
1656.5 12.738484
1657 12.712894
1657.5 12.760349
1658 12.817198
1658.5 12.628876
1659 12.949732
1659.5 12.675858
1660 12.672468
1660.5 12.611707
1661 12.769522
1661.5 12.669896
1662 12.7536
1662.5 12.687747
1663 12.679635
1663.5 12.799352
1664 12.758674
1664.5 12.829754
1665 12.662463
1665.5 12.845524
1666 12.822676
1666.5 12.886195
1667 12.721907
1667.5 12.638694
1668 12.780064
1668.5 12.733018
1669 12.652053
1669.5 12.409314
1670 12.647928
1670.5 12.700358
1671 12.805016
1671.5 12.741496
1672 12.881485
1672.5 12.650931
1673 12.970702
1673.5 12.853268
1674 12.919444
1674.5 12.733966
1675 12.80705
1675.5 12.756158
1676 12.869531
1676.5 12.884584
1677 12.878819
1677.5 12.916069
1678 12.865458
1678.5 12.929387
1679 12.902912
1679.5 12.938802
1680 12.729718
1680.5 12.811182
1681 12.803856
1681.5 12.822698
1682 12.896006
1682.5 12.868477
1683 12.955378
1683.5 12.673298
1684 13.014828
1684.5 12.823758
1685 13.115609
1685.5 12.964442
1686 12.900519
1686.5 12.854765
1687 12.900339
1687.5 12.935601
1688 12.855424
1688.5 13.005264
1689 12.875445
1689.5 13.032609
1690 12.930922
1690.5 13.083957
1691 13.077416
1691.5 13.034634
1692 12.940189
1692.5 12.875566
1693 13.088532
1693.5 12.913789
1694 13.049193
1694.5 12.867877
1695 13.074079
1695.5 12.888409
1696 13.220422
1696.5 13.139543
1697 12.983623
1697.5 13.046938
1698 12.897384
1698.5 13.105336
1699 12.984234
1699.5 13.146913
1700 12.969097
1700.5 13.171707
1701 13.09164
1701.5 13.057895
1702 13.145003
1702.5 13.036488
1703 13.175124
1703.5 12.956908
1704 13.015105
1704.5 12.854965
1705 13.17881
1705.5 13.007963
1706 13.105351
1706.5 12.944552
1707 13.095552
1707.5 13.095398
1708 13.118498
1708.5 13.137734
1709 12.877698
1709.5 13.186233
1710 13.092932
1710.5 13.118495
1711 13.048552
1711.5 13.111641
1712 13.113792
1712.5 13.081582
1713 13.200732
1713.5 13.056229
1714 13.275428
1714.5 13.102493
1715 13.254096
1715.5 13.127033
1716 13.22293
1716.5 13.20039
1717 13.280451
1717.5 13.280697
1718 13.2201
1718.5 13.387559
1719 13.236231
1719.5 13.299058
1720 13.003717
1720.5 13.295965
1721 13.105999
1721.5 13.305937
1722 13.222685
1722.5 13.292983
1723 13.265517
1723.5 13.260241
1724 13.277812
1724.5 13.222247
1725 13.413702
1725.5 13.223544
1726 13.368571
1726.5 13.244012
1727 13.292122
1727.5 13.294825
1728 13.269024
1728.5 13.29744
1729 13.218462
1729.5 13.352495
1730 13.2174
1730.5 13.391235
1731 13.202259
1731.5 13.356701
1732 13.220561
1732.5 13.449024
1733 13.358437
1733.5 13.417815
1734 13.382614
1734.5 13.311791
1735 13.470076
1735.5 13.378528
1736 13.540637
1736.5 13.350561
1737 13.498127
1737.5 13.346364
1738 13.52073
1738.5 13.560984
1739 13.521999
1739.5 13.594712
1740 13.467273
1740.5 13.562998
1741 13.306861
1741.5 13.539481
1742 13.327371
1742.5 13.551195
1743 13.411236
1743.5 13.436519
1744 13.394883
1744.5 13.430962
1745 13.546371
1745.5 13.364103
1746 13.560477
1746.5 13.479155
1747 13.581122
1747.5 13.442345
1748 13.545464
1748.5 13.467121
1749 13.513197
1749.5 13.594687
1750 13.451
1750.5 13.624974
1751 13.434206
1751.5 13.597435
1752 13.404205
1752.5 13.643177
1753 13.507791
1753.5 13.590607
1754 13.50283
1754.5 13.506518
1755 13.592063
1755.5 13.554865
1756 13.62654
1756.5 13.499984
1757 13.689797
1757.5 13.611297
1758 13.758045
1758.5 13.609695
1759 13.72748
1759.5 13.706709
1760 13.634673
1760.5 13.751903
1761 13.702258
1761.5 13.814346
1762 13.629566
1762.5 13.68876
1763 13.564353
1763.5 13.682057
1764 13.637681
1764.5 13.661698
1765 13.687755
1765.5 13.519351
1766 13.805218
1766.5 13.643341
1767 13.758564
1767.5 13.524367
1768 13.80775
1768.5 13.680047
1769 13.802706
1769.5 13.774976
1770 13.835239
1770.5 13.845517
1771 13.875827
1771.5 13.943207
1772 13.816623
1772.5 13.835461
1773 13.606435
1773.5 13.787621
1774 13.646337
1774.5 13.674688
1775 13.74675
1775.5 13.752128
1776 13.760489
1776.5 13.542466
1777 13.85206
1777.5 13.647072
1778 13.905497
1778.5 13.711254
1779 13.942991
1779.5 13.799222
1780 13.984001
1780.5 13.904838
1781 13.912861
1781.5 13.975349
1782 13.892789
1782.5 14.029029
1783 13.82986
1783.5 14.003272
1784 13.861665
1784.5 14.021854
1785 13.967521
1785.5 13.947701
1786 14.045544
1786.5 13.940074
1787 14.066236
1787.5 13.805
1788 14.042887
1788.5 13.742682
1789 14.121483
1789.5 13.941704
1790 14.033732
1790.5 13.967966
1791 14.116825
1791.5 14.128748
1792 14.060815
1792.5 14.118712
1793 14.005163
1793.5 14.29209
1794 14.092824
1794.5 14.270131
1795 14.094804
1795.5 14.170139
1796 14.142853
1796.5 14.090315
1797 14.208457
1797.5 13.991177
1798 14.068002
1798.5 13.85708
1799 14.065194
1799.5 13.950621
1800 14.135423
1800.5 14.090437
1801 14.239968
1801.5 14.166376
1802 14.107606
1802.5 14.350848
1803 14.138626
1803.5 14.209776
1804 13.966793
1804.5 14.041609
1805 14.016604
1805.5 14.249764
1806 14.2846
1806.5 14.360641
1807 14.354946
1807.5 14.240557
1808 14.319345
1808.5 14.115462
1809 14.129157
1809.5 13.929333
1810 14.178844
1810.5 14.198601
1811 14.27599
1811.5 14.376104
1812 14.416173
1812.5 14.396518
1813 14.221171
1813.5 14.293689
1814 14.131975
1814.5 14.185844
1815 14.141287
1815.5 14.561418
1816 14.405556
1816.5 14.426272
1817 14.231689
1817.5 14.245747
1818 14.30939
1818.5 14.146687
1819 14.077018
1819.5 14.02638
1820 14.378545
1820.5 14.337635
1821 14.496134
1821.5 14.405632
1822 14.436162
1822.5 14.605314
1823 14.581372
1823.5 14.460042
1824 14.184399
1824.5 14.289163
1825 14.063063
1825.5 14.39534
1826 14.513735
1826.5 14.649256
1827 14.4945
1827.5 14.48641
1828 14.361371
1828.5 14.323351
1829 14.361346
1829.5 14.171292
1830 14.424865
1830.5 14.276946
1831 14.703524
1831.5 14.60847
1832 14.727917
1832.5 14.557442
1833 14.399725
1833.5 14.55557
1834 14.292689
1834.5 14.440544
1835 14.238
1835.5 14.46068
1836 14.34335
1836.5 14.692587
1837 14.547621
1837.5 14.761341
1838 14.564042
1838.5 14.423382
1839 14.467017
1839.5 14.302061
1840 14.449413
1840.5 14.27854
1841 14.671309
1841.5 14.601062
1842 14.861253
1842.5 14.840151
1843 14.903405
1843.5 14.812015
1844 14.632078
1844.5 14.750521
1845 14.335276
1845.5 14.519154
1846 14.269499
1846.5 14.362086
1847 14.433429
1847.5 14.741683
1848 14.849205
1848.5 14.833899
1849 14.719471
1849.5 14.682192
1850 14.916489
1850.5 14.76398
1851 14.766315
1851.5 14.495508
1852 14.597051
1852.5 14.497028
1853 14.747638
1853.5 14.801617
1854 14.873946
1854.5 14.749877
1855 14.59078
1855.5 14.735961
1856 14.697157
1856.5 15.003872
1857 14.899473
1857.5 14.817338
1858 14.543992
1858.5 14.488433
1859 14.764634
1859.5 14.807656
1860 14.913869
1860.5 14.84767
1861 15.225112
1861.5 14.716651
1862 14.766765
1862.5 14.605322
1863 14.886636
1863.5 14.890115
1864 15.171608
1864.5 15.013932
1865 14.915331
1865.5 14.857192
1866 14.663978
1866.5 14.750181
1867 14.729658
1867.5 15.040231
1868 14.895965
1868.5 14.800107
1869 14.682849
1869.5 14.68451
1870 14.737809
1870.5 14.699095
1871 14.966071
1871.5 14.652549
1872 15.065409
1872.5 14.728467
1873 15.080351
1873.5 14.962041
1874 15.146481
1874.5 14.895067
1875 14.822754
1875.5 14.894754
1876 14.893547
1876.5 15.11621
1877 15.050215
1877.5 15.319845
1878 15.123227
1878.5 15.07557
1879 14.970094
1879.5 15.049042
1880 15.015134
1880.5 14.918807
1881 15.158492
1881.5 14.822987
1882 15.00534
1882.5 14.689371
1883 14.909299
1883.5 14.960878
1884 15.237886
1884.5 15.090591
1885 15.222882
1885.5 15.148455
1886 14.951871
1886.5 15.184177
1887 14.983927
1887.5 15.073214
1888 14.831944
1888.5 15.033689
1889 14.868818
1889.5 15.01326
1890 15.09099
1890.5 15.17355
1891 15.251763
1891.5 15.064786
1892 15.354718
1892.5 15.068337
1893 15.434235
1893.5 15.186979
1894 15.366763
1894.5 15.206154
1895 15.163098
1895.5 15.216973
1896 15.083475
1896.5 15.119722
1897 14.879213
1897.5 15.155531
1898 14.959808
1898.5 15.141393
1899 15.205435
1899.5 15.373084
1900 15.41947
1900.5 15.357895
1901 15.463115
1901.5 15.209943
1902 15.258639
1902.5 15.224484
1903 15.269361
1903.5 15.07488
1904 15.102144
1904.5 14.959317
1905 15.271915
1905.5 15.284427
1906 15.238015
1906.5 15.570033
1907 15.576985
1907.5 15.530196
1908 15.321648
1908.5 15.437566
1909 15.268782
1909.5 15.300564
1910 15.172814
1910.5 15.323354
1911 15.241405
1911.5 15.15837
1912 15.158512
1912.5 15.229006
1913 15.507583
1913.5 15.383674
1914 15.607692
1914.5 15.439656
1915 15.520385
1915.5 15.530893
1916 15.551634
1916.5 15.552883
1917 15.253669
1917.5 15.483335
1918 15.282466
1918.5 15.34175
1919 15.153456
1919.5 15.255065
1920 15.364374
1920.5 15.695544
1921 15.611544
1921.5 15.605892
1922 15.482555
1922.5 15.439905
1923 15.419129
1923.5 15.282898
1924 15.494171
1924.5 15.181811
1925 15.366
1925.5 15.239616
1926 15.3136
1926.5 15.470795
1927 15.412921
1927.5 15.484248
1928 15.292983
1928.5 15.617748
1929 15.275957
1929.5 15.683909
1930 15.444563
1930.5 15.529341
1931 15.520158
1931.5 15.501267
1932 15.575065
1932.5 15.501566
1933 15.592435
1933.5 15.444602
1934 15.617555
1934.5 15.523872
1935 15.664533
1935.5 15.595448
1936 15.658955
1936.5 15.680365
1937 15.502642
1937.5 15.631527
1938 15.459816
1938.5 15.789683
1939 15.503699
1939.5 15.6193
1940 15.566495
1940.5 15.780979
1941 15.687254
1941.5 15.66256
1942 15.64721
1942.5 15.611349
1943 15.804276
1943.5 15.677975
1944 15.783571
1944.5 15.66264
1945 15.88921
1945.5 15.72428
1946 15.77729
1946.5 15.817347
1947 15.767539
1947.5 15.84899
1948 15.740404
1948.5 15.832421
1949 15.668395
1949.5 15.90046
1950 15.742113
1950.5 15.811701
1951 15.690236
1951.5 15.815854
1952 15.805033
1952.5 15.838796
1953 15.798999
1953.5 15.633193
1954 15.959434
1954.5 15.833883
1955 15.938483
1955.5 15.763512
1956 15.96311
1956.5 15.86297
1957 16.013984
1957.5 15.910341
1958 15.835784
1958.5 16.076697
1959 15.889333
1959.5 16.037135
1960 15.822628
1960.5 16.006035
1961 15.83011
1961.5 15.962397
1962 15.932739
1962.5 15.901789
1963 16.04953
1963.5 15.956791
1964 15.953308
1964.5 15.796793
1965 16.091758
1965.5 15.872511
1966 16.067958
1966.5 15.979703
1967 16.061027
1967.5 16.004747
1968 16.109036
1968.5 16.043629
1969 16.014229
1969.5 16.085823
1970 15.970217
1970.5 16.207214
1971 16.100097
1971.5 16.09025
1972 16.101427
1972.5 16.106956
1973 16.204157
1973.5 16.005605
1974 16.236661
1974.5 16.113484
1975 16.188864
1975.5 15.976717
1976 16.234431
1976.5 15.985732
1977 16.265064
1977.5 16.053288
1978 16.194257
1978.5 16.129914
1979 16.184123
1979.5 16.285434
1980 16.135345
1980.5 16.314393
1981 16.064678
1981.5 16.342919
1982 16.203251
1982.5 16.281688
1983 16.289282
1983.5 16.277805
1984 16.228124
1984.5 16.060084
1985 16.356437
1985.5 16.092438
1986 16.344777
1986.5 16.159041
1987 16.292214
1987.5 16.24907
1988 16.312775
1988.5 16.318972
1989 16.30414
1989.5 16.38255
1990 16.161789
1990.5 16.409722
1991 16.334401
1991.5 16.555655
1992 16.224912
1992.5 16.43538
1993 16.362044
1993.5 16.41376
1994 16.465837
1994.5 16.391581
1995 16.528629
1995.5 16.278192
1996 16.573071
1996.5 16.251256
1997 16.57764
1997.5 16.318086
1998 16.445753
1998.5 16.390312
1999 16.404121
1999.5 16.483942
2000 16.366363
2000.5 16.46319
2001 16.316657
2001.5 16.580035
2002 16.432199
2002.5 16.585127
2003 16.41721
2003.5 16.574706
2004 16.511965
2004.5 16.486141
2005 16.498959
2005.5 16.449097
2006 16.611211
2006.5 16.504738
2007 16.613124
2007.5 16.446616
2008 16.633077
2008.5 16.483425
2009 16.614854
2009.5 16.609971
2010 16.471848
2010.5 16.803133
2011 16.747276
2011.5 16.775617
2012 16.398317
2012.5 16.631089
2013 16.523327
2013.5 16.596168
2014 16.564775
2014.5 16.617666
2015 16.688852
2015.5 16.607524
2016 16.739906
2016.5 16.542
2017 16.829528
2017.5 16.670857
2018 16.701882
2018.5 16.672909
2019 16.783875
2019.5 16.820066
2020 16.750352
2020.5 16.712479
2021 16.552237
2021.5 16.725546
2022 16.664346
2022.5 16.793366
2023 16.458929
2023.5 16.817944
2024 16.681732
2024.5 16.807996
2025 16.763651
2025.5 16.838112
2026 16.930038
2026.5 16.726139
2027 16.749278
2027.5 16.677177
2028 16.926657
2028.5 16.69354
2029 16.87523
2029.5 16.704029
2030 16.83156
2030.5 16.795774
2031 16.886815
2031.5 16.899604
2032 16.755839
2032.5 16.900244
2033 16.783151
2033.5 16.924959
2034 16.615756
2034.5 16.848537
2035 16.689052
2035.5 16.965017
2036 16.822065
2036.5 16.858387
2037 16.989771
2037.5 16.986698
2038 17.062293
2038.5 16.940898
2039 17.017631
2039.5 16.852118
2040 17.016219
2040.5 16.862714
2041 16.970123
2041.5 16.971113
2042 17.108124
2042.5 17.036858
2043 16.962045
2043.5 16.992095
2044 16.794723
2044.5 17.05215
2045 16.83002
2045.5 17.010699
2046 16.882724
2046.5 17.1076
2047 17.112581
2047.5 17.067286
2048 17.230153
2048.5 16.923378
2049 17.042001
2049.5 17.065053
2050 17.063227
2050.5 17.062446
2051 17.230961
2051.5 17.133501
2052 17.016123
2052.5 17.069234
2053 17.03956
2053.5 17.172895
2054 16.940494
2054.5 17.241542
2055 16.966732
2055.5 17.323124
2056 17.129384
2056.5 17.155553
2057 16.971722
2057.5 17.186123
2058 17.221695
2058.5 17.1993
2059 17.230082
2059.5 16.97389
2060 17.293641
2060.5 17.073855
2061 17.278579
2061.5 17.188407
2062 17.28863
2062.5 17.312178
2063 17.281833
2063.5 17.424847
2064 17.178613
2064.5 17.350154
2065 17.141351
2065.5 17.330225
2066 17.1351
2066.5 17.377692
2067 17.262197
2067.5 17.312828
2068 17.195068
2068.5 17.153831
2069 17.359284
2069.5 17.217889
2070 17.378777
2070.5 17.149949
2071 17.507525
2071.5 17.39388
2072 17.497282
2072.5 17.247768
2073 17.306063
2073.5 17.223108
2074 17.344248
2074.5 17.501299
2075 17.260101
2075.5 17.509016
2076 17.386203
2076.5 17.525871
2077 17.369199
2077.5 17.329605
2078 17.381205
2078.5 17.328542
2079 17.437394
2079.5 17.337422
2080 17.573293
2080.5 17.544517
2081 17.583147
2081.5 17.199439
2082 17.521515
2082.5 17.41575
2083 17.549166
2083.5 17.474131
2084 17.585786
2084.5 17.508982
2085 17.538536
2085.5 17.513511
2086 17.427145
2086.5 17.649148
2087 17.504258
2087.5 17.587896
2088 17.437412
2088.5 17.498279
2089 17.560312
2089.5 17.525116
2090 17.605738
2090.5 17.543888
2091 17.703107
2091.5 17.426182
2092 17.559221
2092.5 17.370023
2093 17.674147
2093.5 17.549095
2094 17.682585
2094.5 17.610762
2095 17.775565
2095.5 17.771755
2096 17.680165
2096.5 17.622933
2097 17.561331
2097.5 17.787537
2098 17.538466
2098.5 17.803554
2099 17.558272
2099.5 17.641267
2100 17.66782
2100.5 17.742661
2101 17.763311
2101.5 17.608452
2102 17.911611
2102.5 17.594488
2103 17.699507
2103.5 17.615594
2104 17.83376
2104.5 17.709133
2105 17.891279
2105.5 17.813222
2106 17.813271
2106.5 17.933781
2107 17.685311
2107.5 17.886242
2108 17.699008
2108.5 17.878413
2109 17.644063
2109.5 17.884041
2110 17.828545
2110.5 17.828038
2111 17.950574
2111.5 17.885023
2112 17.930306
2112.5 17.698556
2113 17.922561
2113.5 17.606862
2114 17.983529
2114.5 17.773739
2115 17.920034
2115.5 17.926668
2116 18.006325
2116.5 18.01037
2117 17.815939
2117.5 17.982824
2118 17.814793
2118.5 18.04889
2119 17.897077
2119.5 18.085966
2120 17.868873
2120.5 18.067762
2121 18.10901
2121.5 17.963304
2122 17.996991
2122.5 17.936155
2123 18.134846
2123.5 17.815822
2124 18.076098
2124.5 17.801747
2125 18.154685
2125.5 17.94038
2126 18.004559
2126.5 17.965108
2127 17.926089
2127.5 18.140481
2128 17.991123
2128.5 18.154801
2129 17.925325
2129.5 18.187588
2130 18.120514
2130.5 18.219776
2131 18.090212
2131.5 18.134226
2132 18.054825
2132.5 18.01976
2133 18.212184
2133.5 18.000396
2134 18.228799
2134.5 18.129545
2135 18.277851
2135.5 18.119797
2136 18.351835
2136.5 18.236905
2137 18.181664
2137.5 18.172702
2138 18.073654
2138.5 18.260862
2139 18.183742
2139.5 18.306905
2140 18.089081
2140.5 18.450226
2141 18.279681
2141.5 18.266226
2142 18.214916
2142.5 18.274041
2143 18.339102
2143.5 18.128037
2144 18.379584
2144.5 18.145135
2145 18.34922
2145.5 18.187986
2146 18.30941
2146.5 18.235807
2147 18.36403
2147.5 18.416514
2148 18.413749
2148.5 18.481578
2149 18.090037
2149.5 18.43223
2150 18.346396
2150.5 18.387081
2151 18.2531
2151.5 18.505514
2152 18.374465
2152.5 18.501407
2153 18.497334
2153.5 18.357919
2154 18.492547
2154.5 18.41314
2155 18.551674
2155.5 18.361898
2156 18.542556
2156.5 18.327673
2157 18.50633
2157.5 18.331854
2158 18.421538
2158.5 18.548986
2159 18.522109
2159.5 18.541911
2160 18.285628
2160.5 18.5358
2161 18.436626
2161.5 18.577057
2162 18.452902
2162.5 18.575527
2163 18.543677
2163.5 18.674737
2164 18.621922
2164.5 18.646951
2165 18.653774
2165.5 18.467213
2166 18.563208
2166.5 18.542196
2167 18.687992
2167.5 18.508905
2168 18.586144
2168.5 18.486348
2169 18.514708
2169.5 18.687543
2170 18.645176
2170.5 18.688565
2171 18.516594
2171.5 18.794625
2172 18.587495
2172.5 18.879959
2173 18.697521
2173.5 18.676749
2174 18.622814
2174.5 18.729559
2175 18.689385
2175.5 18.62461
2176 18.786098
2176.5 18.676275
2177 18.8732
2177.5 18.678607
2178 18.822217
2178.5 18.813084
2179 18.873324
2179.5 18.870839
2180 18.786426
2180.5 18.783022
2181 18.682967
2181.5 18.885355
2182 18.606168
2182.5 18.836999
2183 18.635289
2183.5 18.889438
2184 18.794717
2184.5 18.893225
2185 18.896821
2185.5 18.84445
2186 19.098866
2186.5 18.9778
2187 19.080278
2187.5 18.756953
2188 18.934597
2188.5 18.855014
2189 18.913414
2189.5 18.95335
2190 18.977572
2190.5 18.962575
2191 18.875395
2191.5 19.137141
2192 18.922676
2192.5 19.157341
2193 18.878508
2193.5 19.055773
2194 18.865989
2194.5 19.037965
2195 18.990603
2195.5 19.02398
2196 19.049346
2196.5 18.980484
2197 19.114728
2197.5 18.968523
2198 19.206582
2198.5 18.914913
2199 19.224289
2199.5 19.052424
2200 19.148347
2200.5 19.088185
2201 19.174564
2201.5 19.092162
2202 18.961605
2202.5 19.197145
2203 18.9785
2203.5 19.199821
2204 19.057384
2204.5 19.303623
2205 19.160977
2205.5 19.171378
2206 19.185065
2206.5 19.152853
2207 19.18484
2207.5 19.004031
2208 19.304593
2208.5 19.152088
2209 19.313237
2209.5 19.168456
2210 19.331597
2210.5 19.259414
2211 19.392934
2211.5 19.366914
2212 19.317654
2212.5 19.374153
2213 19.137323
2213.5 19.343062
2214 19.087762
2214.5 19.315718
2215 19.151616
2215.5 19.286285
2216 19.203375
2216.5 19.286507
2217 19.346912
2217.5 19.266129
2218 19.403474
2218.5 19.199842
2219 19.548488
2219.5 19.465797
2220 19.498262
2220.5 19.31873
2221 19.461609
2221.5 19.344527
2222 19.346678
2222.5 19.462517
2223 19.286621
2223.5 19.521625
2224 19.376603
2224.5 19.500627
2225 19.38563
2225.5 19.53868
2226 19.513442
2226.5 19.559047
2227 19.399208
2227.5 19.343039
2228 19.516209
2228.5 19.414818
2229 19.521128
2229.5 19.349682
2230 19.604409
2230.5 19.409333
2231 19.704762
2231.5 19.551013
2232 19.617721
2232.5 19.596933
2233 19.441091
2233.5 19.575822
2234 19.495273
2234.5 19.61806
2235 19.52951
2235.5 19.62924
2236 19.54768
2236.5 19.728696
2237 19.655286
2237.5 19.660081
2238 19.694316
2238.5 19.614916
2239 19.756381
2239.5 19.601616
2240 19.633132
2240.5 19.393837
2241 19.678366
2241.5 19.486979
2242 19.71668
2242.5 19.64539
2243 19.681919
2243.5 19.685701
2244 19.740048
2244.5 19.795191
2245 19.702013
2245.5 19.855177
2246 19.776048
2246.5 19.787639
2247 19.639993
2247.5 19.685124
2248 19.656566
2248.5 19.737627
2249 19.740836
2249.5 19.608256
2250 19.897814
2250.5 19.718736
2251 19.87583
2251.5 19.710535
2252 19.974606
2252.5 19.669379
2253 19.844566
2253.5 19.703338
2254 19.802718
2254.5 19.850957
2255 19.7788
2255.5 19.843714
2256 19.819617
2256.5 20.004895
2257 19.892448
2257.5 20.044243
2258 19.896655
2258.5 19.819918
2259 19.809529
2259.5 19.803838
2260 19.875498
2260.5 19.801702
2261 19.989143
2261.5 19.753467
2262 19.995384
2262.5 19.840965
2263 20.10534
2263.5 19.949494
2264 20.035425
2264.5 19.938996
2265 19.813931
2265.5 19.941713
2266 19.801208
2266.5 20.0341
2267 19.866066
2267.5 20.065838
2268 19.83418
2268.5 20.038298
2269 20.026691
2269.5 20.002647
2270 20.167308
2270.5 19.977771
2271 20.056143
2271.5 19.832632
2272 20.026845
2272.5 19.799905
2273 20.071688
2273.5 19.925635
2274 20.03286
2274.5 20.005725
2275 20.012088
2275.5 20.076917
2276 20.053932
2276.5 20.223603
2277 19.976583
2277.5 20.141447
2278 19.980541
2278.5 20.095474
2279 19.975094
2279.5 20.118234
2280 20.112345
2280.5 20.019846
2281 20.156136
2281.5 20.016335
2282 20.247535
2282.5 20.021491
2283 20.221803
2283.5 20.053744
2284 20.23946
2284.5 20.179883
2285 20.355791
2285.5 20.217495
2286 20.184608
2286.5 20.135313
2287 20.078245
2287.5 20.203617
2288 19.960982
2288.5 20.334202
2289 20.162903
2289.5 20.358035
2290 20.263399
2290.5 20.259951
2291 20.328218
2291.5 20.260555
2292 20.447101
2292.5 20.225497
2293 20.427011
2293.5 20.212722
2294 20.348901
2294.5 20.172036
2295 20.247874
2295.5 20.311576
2296 20.26258
2296.5 20.269474
2297 20.102426
2297.5 20.438813
2298 20.434837
2298.5 20.404859
2299 20.304252
2299.5 20.579897
2300 20.255879
2300.5 20.424189
2301 20.319678
2301.5 20.398341
2302 20.465086
2302.5 20.368201
2303 20.437512
2303.5 20.293109
2304 20.473984
2304.5 20.378686
2305 20.474273
2305.5 20.371638
2306 20.443159
2306.5 20.495331
2307 20.406832
2307.5 20.549856
2308 20.394146
2308.5 20.546232
2309 20.508866
2309.5 20.615441
2310 20.417906
2310.5 20.453271
2311 20.437734
2311.5 20.571169
2312 20.543791
2312.5 20.476848
2313 20.605516
2313.5 20.47732
2314 20.611517
2314.5 20.451778
2315 20.715073
2315.5 20.625491
2316 20.714992
2316.5 20.610042
2317 20.674312
2317.5 20.647465
2318 20.593615
2318.5 20.657434
2319 20.358992
2319.5 20.781182
2320 20.615292
2320.5 20.778696
2321 20.640336
2321.5 20.758103
2322 20.744349
2322.5 20.748959
2323 20.755343
2323.5 20.665021
2324 20.82506
2324.5 20.695403
2325 20.849717
2325.5 20.712025
2326 20.780556
2326.5 20.721468
2327 20.810096
2327.5 20.723605
2328 20.681323
2328.5 20.861627
2329 20.663533
2329.5 20.876069
2330 20.572497
2330.5 20.886435
2331 20.690654
2331.5 20.957361
2332 20.850839
2332.5 20.94948
2333 20.925663
2333.5 20.902479
2334 21.027221
2334.5 20.942977
2335 20.967093
2335.5 20.767726
2336 21.002188
2336.5 20.87054
2337 20.995322
2337.5 20.916636
2338 21.000567
2338.5 20.925522
2339 20.881787
2339.5 21.093979
2340 20.800142
2340.5 21.110281
2341 20.805392
2341.5 21.156095
2342 20.964636
2342.5 21.138565
2343 20.969929
2343.5 21.031861
2344 21.076572
2344.5 20.888364
2345 21.141164
2345.5 20.946385
2346 21.139804
2346.5 20.988153
2347 21.252064
2347.5 21.063559
2348 21.091656
2348.5 21.156994
2349 21.074648
2349.5 21.231191
2350 21.12163
2350.5 21.387766
2351 21.115103
2351.5 21.276194
2352 21.031778
2352.5 21.215276
2353 21.11076
2353.5 21.119662
2354 21.162164
2354.5 21.132764
2355 21.215059
2355.5 20.975336
2356 21.329872
2356.5 21.222036
2357 21.257733
2357.5 21.180765
2358 21.329176
2358.5 21.328734
2359 21.361636
2359.5 21.293448
2360 21.188644
2360.5 21.462585
2361 21.264027
2361.5 21.372192
2362 21.126859
2362.5 21.303499
2363 21.269546
2363.5 21.347527
2364 21.293902
2364.5 21.29678
2365 21.448769
2365.5 21.321602
2366 21.518847
2366.5 21.21692
2367 21.530104
2367.5 21.445604
2368 21.531345
2368.5 21.272729
2369 21.475433
2369.5 21.473776
2370 21.375974
2370.5 21.487029
2371 21.359247
2371.5 21.595147
2372 21.42583
2372.5 21.514411
2373 21.383506
2373.5 21.472424
2374 21.538699
2374.5 21.60341
2375 21.6208
2375.5 21.509993
2376 21.70985
2376.5 21.451238
2377 21.561475
2377.5 21.362254
2378 21.662357
2378.5 21.476403
2379 21.622096
2379.5 21.533601
2380 21.657518
2380.5 21.676847
2381 21.634676
2381.5 21.715891
2382 21.649404
2382.5 21.802974
2383 21.5882
2383.5 21.68006
2384 21.577099
2384.5 21.615975
2385 21.740414
2385.5 21.694031
2386 21.705326
2386.5 21.515779
2387 21.777338
2387.5 21.631473
2388 21.817388
2388.5 21.613583
2389 21.800855
2389.5 21.716209
2390 21.913351
2390.5 21.757035
2391 21.759728
2391.5 21.789935
2392 21.719548
2392.5 21.883684
2393 21.613936
2393.5 21.914065
2394 21.67124
2394.5 21.935666
2395 21.797554
2395.5 21.896975
2396 22.009434
2396.5 21.948509
2397 21.973518
2397.5 21.640375
2398 21.906002
2398.5 21.711902
2399 21.927398
2399.5 21.705174
2400 21.870464
2400.5 21.801473
2401 21.916699
2401.5 21.908049
2402 21.845399
2402.5 21.981071
2403 21.900275
2403.5 22.158055
2404 22.045545
2404.5 22.23182
2405 22.032362
2405.5 22.067977
2406 21.955457
2406.5 21.95643
2407 22.125053
2407.5 21.863018
2408 22.099875
2408.5 21.887019
2409 22.097825
2409.5 21.83315
2410 22.138588
2410.5 21.991257
2411 22.09807
2411.5 22.173904
2412 22.010148
2412.5 22.098164
2413 22.006382
2413.5 22.11013
2414 21.943693
2414.5 22.271533
2415 22.139497
2415.5 22.188073
2416 22.240964
2416.5 22.387126
2417 22.303511
2417.5 22.130942
2418 22.222888
2418.5 22.050664
2419 22.249343
2419.5 22.105427
2420 22.24572
2420.5 22.13432
2421 22.270693
2421.5 22.098233
2422 22.173303
2422.5 22.152899
2423 22.110015
2423.5 22.396666
2424 22.301173
2424.5 22.410424
2425 22.300209
2425.5 22.480668
2426 22.248809
2426.5 22.29917
2427 22.252826
2427.5 22.279665
2428 22.432558
2428.5 22.340913
2429 22.469862
2429.5 22.254333
2430 22.541456
2430.5 22.298148
2431 22.4884
2431.5 22.157386
2432 22.308961
2432.5 22.470373
2433 22.489603
2433.5 22.46062
2434 22.277246
2434.5 22.482596
2435 22.393568
2435.5 22.542191
2436 22.423665
2436.5 22.563198
2437 22.404338
2437.5 22.448458
2438 22.420026
2438.5 22.42943
2439 22.59171
2439.5 22.528087
2440 22.569087
2440.5 22.439453
2441 22.619404
2441.5 22.459745
2442 22.492827
2442.5 22.334562
2443 22.487919
2443.5 22.574906
2444 22.569311
2444.5 22.747354
2445 22.428243
2445.5 22.614436
2446 22.418985
2446.5 22.627968
2447 22.439958
2447.5 22.612035
2448 22.477372
2448.5 22.568066
2449 22.586644
2449.5 22.493397
2450 22.637863
2450.5 22.533685
2451 22.795369
2451.5 22.515327
2452 22.671451
2452.5 22.651081
2453 22.741643
2453.5 22.725144
2454 22.656569
2454.5 22.858058
2455 22.738251
2455.5 22.897579
2456 22.475772
2456.5 22.755952
2457 22.531483
2457.5 22.8057
2458 22.651285
2458.5 22.757228
2459 22.69458
2459.5 22.696967
2460 22.842146
2460.5 22.737387
2461 22.895999
2461.5 22.669663
2462 23.030539
2462.5 22.950405
2463 23.00176
2463.5 22.915052
2464 22.839609
2464.5 22.786734
2465 22.694656
2465.5 22.889471
2466 22.711585
2466.5 22.955392
2467 22.703806
2467.5 22.884555
2468 22.800164
2468.5 22.915964
2469 22.764063
2469.5 22.745745
2470 22.868942
2470.5 22.81034
2471 23.001546
2471.5 23.003545
2472 23.212112
2472.5 22.985256
2473 23.110892
2473.5 22.998106
2474 22.954048
2474.5 23.118497
2475 23.008651
2475.5 23.125191
2476 22.890535
2476.5 23.171045
2477 22.98162
2477.5 23.284581
2478 22.982293
2478.5 22.993004
2479 22.995728
2479.5 23.07658
2480 23.075898
2480.5 23.153357
2481 23.296303
2481.5 23.000056
2482 23.226751
2482.5 23.117881
2483 23.141065
2483.5 23.071106
2484 23.252809
2484.5 23.169202
2485 23.177966
2485.5 23.301859
2486 22.975941
2486.5 23.285694
2487 23.0553
2487.5 23.322961
2488 23.061763
2488.5 23.192382
2489 23.203485
2489.5 23.181139
2490 23.151532
2490.5 23.053503
2491 23.227914
2491.5 23.178354
2492 23.252229
2492.5 23.083699
2493 23.350254
2493.5 23.262547
2494 23.438975
2494.5 23.352738
2495 23.463085
2495.5 23.36356
2496 23.411138
2496.5 23.400415
2497 23.350577
2497.5 23.509617
2498 23.334825
2498.5 23.399436
2499 23.340602
2499.5 23.423043
2500 23.400004
2500.5 23.407094
2501 23.460977
2501.5 23.270787
2502 23.477343
2502.5 23.294164
2503 23.516035
2503.5 23.260134
2504 23.550168
2504.5 23.374613
2505 23.589505
2505.5 23.46978
2506 23.529197
2506.5 23.540078
2507 23.493695
2507.5 23.518677
2508 23.462825
2508.5 23.616362
2509 23.408286
2509.5 23.655164
2510 23.571023
2510.5 23.542567
2511 23.705387
2511.5 23.499773
2512 23.553714
2512.5 23.384582
2513 23.636423
2513.5 23.362377
2514 23.596318
2514.5 23.429784
2515 23.753721
2515.5 23.605548
2516 23.778096
2516.5 23.735254
2517 23.790914
2517.5 23.821661
2518 23.676096
2518.5 23.754588
2519 23.673208
2519.5 23.798247
2520 23.617443
2520.5 23.719291
2521 23.786971
2521.5 23.749557
2522 23.783778
2522.5 23.725384
2523 23.870212
2523.5 23.579066
2524 23.95343
2524.5 23.685043
2525 23.83462
2525.5 23.581627
2526 23.779878
2526.5 23.720767
2527 23.769768
2527.5 23.852864
2528 23.77727
2528.5 23.895717
2529 23.635344
2529.5 23.915435
2530 23.752491
2530.5 23.823084
2531 23.690072
2531.5 23.747231
2532 23.896839
2532.5 23.808601
2533 24.077445
2533.5 23.80518
2534 24.135572
2534.5 23.917849
2535 24.106255
2535.5 23.91777
2536 24.228479
2536.5 24.117334
2537 24.079067
2537.5 24.008246
2538 23.727693
2538.5 23.993818
2539 23.986696
2539.5 24.160133
2540 23.960303
2540.5 24.160439
2541 24.014533
2541.5 24.071752
2542 24.1018
2542.5 24.088366
2543 24.165666
2543.5 23.999728
2544 24.133095
2544.5 23.877981
2545 24.065383
2545.5 23.837438
2546 24.008158
2546.5 23.911956
2547 23.989765
2547.5 24.065235
2548 24.00288
2548.5 24.098222
2549 23.85259
2549.5 24.147968
2550 23.951884
2550.5 24.200556
2551 24.030422
2551.5 24.193126
2552 24.121086
2552.5 24.31422
2553 24.379782
2553.5 24.30073
2554 24.572238
2554.5 24.365011
2555 24.404894
2555.5 24.150954
2556 24.416853
2556.5 24.342686
2557 24.447428
2557.5 24.336737
2558 24.197671
2558.5 24.369577
2559 24.215804
2559.5 24.268651
2560 24.079275
2560.5 24.432518
2561 24.158369
2561.5 24.234185
2562 24.078453
2562.5 24.246883
2563 24.280751
2563.5 24.227871
2564 24.257931
2564.5 24.204212
2565 24.454892
2565.5 24.235079
2566 24.645931
2566.5 24.279682
2567 24.407782
2567.5 24.340239
2568 24.326894
2568.5 24.361417
2569 24.285804
2569.5 24.412659
2570 24.276401
2570.5 24.47589
2571 24.131835
2571.5 24.30917
2572 24.138723
2572.5 24.518386
2573 24.510977
2573.5 24.524219
2574 24.590276
2574.5 24.450287
2575 24.55892
2575.5 24.474178
2576 24.712257
2576.5 24.523166
2577 24.80547
2577.5 24.452642
2578 24.510914
2578.5 24.50307
2579 24.54752
2579.5 24.667521
2580 24.475472
2580.5 24.617586
2581 24.372754
2581.5 24.723747
2582 24.385954
2582.5 24.579455
2583 24.408416
2583.5 24.568555
2584 24.591078
2584.5 24.582933
2585 24.509785
2585.5 24.362732
2586 24.731918
2586.5 24.543838
2587 24.80789
2587.5 24.686508
2588 24.796613
2588.5 24.684626
2589 24.673724
2589.5 24.661824
2590 24.535465
2590.5 24.735586
2591 24.531098
2591.5 24.650857
2592 24.458756
2592.5 24.610092
2593 24.560973
2593.5 24.644786
2594 24.606249
2594.5 24.643129
2595 24.778372
2595.5 24.681929
2596 24.880183
2596.5 24.455123
2597 24.81427
2597.5 24.805067
2598 24.818905
2598.5 24.629542
2599 24.761264
2599.5 24.777491
2600 24.803275
2600.5 24.967819
2601 24.794523
2601.5 25.102648
2602 24.846995
2602.5 24.891128
2603 24.817166
2603.5 24.809116
2604 24.775448
2604.5 24.993099
2605 24.872981
2605.5 24.683525
2606 24.816896
2606.5 24.756745
2607 24.846999
2607.5 24.676663
2608 24.917485
2608.5 24.850504
2609 25.028288
2609.5 24.953939
2610 25.040916
2610.5 24.947637
2611 24.882632
2611.5 25.058815
2612 24.936232
2612.5 25.1376
2613 24.985738
2613.5 25.082442
2614 24.999341
2614.5 24.995986
2615 24.986945
2615.5 24.962653
2616 25.140423
2616.5 25.020626
2617 25.250477
2617.5 24.831186
2618 25.057176
2618.5 24.829833
2619 25.086311
2619.5 25.02929
2620 25.108495
2620.5 24.93453
2621 24.709952
2621.5 25.147247
2622 24.853501
2622.5 25.168696
2623 24.87106
2623.5 25.022218
2624 25.024679
2624.5 25.119987
2625 25.18056
2625.5 25.07008
2626 25.172836
2626.5 25.005195
2627 25.320992
2627.5 25.084087
2628 25.235856
2628.5 25.008702
2629 25.193655
2629.5 25.091001
2630 25.083771
2630.5 25.164777
2631 24.905704
2631.5 25.075284
2632 24.867605
2632.5 25.233492
2633 25.030753
2633.5 25.226611
2634 25.283578
2634.5 25.339505
2635 25.376153
2635.5 25.383681
2636 25.605351
2636.5 25.494546
2637 25.751743
2637.5 25.474939
2638 25.69598
2638.5 25.468734
2639 25.607729
2639.5 25.545576
2640 25.497946
2640.5 25.561851
2641 25.439247
2641.5 25.598648
2642 25.461498
2642.5 25.713885
2643 25.460073
2643.5 25.687543
2644 25.518009
2644.5 25.635287
2645 25.693595
2645.5 25.733796
2646 25.861818
2646.5 25.481102
2647 25.739235
2647.5 25.518295
2648 25.703707
2648.5 25.578159
2649 25.78744
2649.5 25.720617
2650 25.837728
2650.5 25.876015
2651 25.739637
2651.5 25.940523
2652 25.732613
2652.5 25.92915
2653 25.686741
2653.5 25.837925
2654 25.637004
2654.5 25.733972
2655 25.750199
2655.5 25.606906
2656 25.807989
2656.5 25.813723
2657 25.839764
2657.5 25.634313
2658 25.898084
2658.5 25.693408
2659 25.974569
2659.5 25.804716
2660 26.050764
2660.5 25.966576
2661 26.081258
2661.5 26.084584
2662 25.836927
2662.5 25.973731
2663 25.845942
2663.5 26.017845
2664 25.966921
2664.5 26.063967
2665 25.952947
2665.5 25.913334
2666 25.768054
2666.5 25.642756
2667 25.840706
2667.5 25.571769
2668 25.73114
2668.5 25.376081
2669 25.63228
2669.5 25.512192
2670 25.798166
2670.5 25.606278
2671 25.558853
2671.5 25.601161
2672 25.569165
2672.5 25.610763
2673 25.416028
2673.5 25.742924
2674 25.594282
2674.5 25.839725
2675 25.68953
2675.5 25.811446
2676 25.788072
2676.5 25.787041
2677 25.863945
2677.5 25.651422
2678 26.000115
2678.5 25.580573
2679 25.936866
2679.5 25.589275
2680 25.821745
2680.5 25.700825
2681 25.816113
2681.5 25.857008
2682 25.77588
2682.5 25.92347
2683 25.68363
2683.5 26.096192
2684 25.965473
2684.5 26.219794
2685 26.173624
2685.5 26.346445
2686 26.285696
2686.5 26.169249
2687 26.281646
2687.5 25.969964
2688 26.171553
2688.5 25.889674
2689 26.268131
2689.5 25.93393
2690 26.3026
2690.5 26.15152
2691 26.227936
2691.5 26.148045
2692 25.995412
2692.5 26.199323
2693 26.032051
2693.5 26.197457
2694 26.044407
2694.5 26.468801
2695 26.231235
2695.5 26.246896
2696 26.2593
2696.5 26.210445
2697 26.201499
2697.5 26.098856
2698 26.311699
2698.5 26.092222
2699 26.405463
2699.5 26.318592
2700 26.481953
2700.5 26.434165
2701 26.613653
2701.5 26.561701
2702 26.474035
2702.5 26.47835
2703 26.248994
2703.5 26.529402
2704 26.459616
2704.5 26.471215
2705 26.347601
2705.5 26.571622
2706 26.483545
2706.5 26.494548
2707 26.591539
2707.5 26.456586
2708 26.584378
2708.5 26.422176
2709 26.547557
2709.5 26.308447
2710 26.70379
2710.5 26.492012
2711 26.579404
2711.5 26.516819
2712 26.229641
2712.5 26.324293
2713 26.172975
2713.5 26.249093
2714 25.974876
2714.5 26.368582
2715 26.293391
2715.5 26.427895
2716 26.289591
2716.5 26.555669
2717 26.564419
2717.5 26.652017
2718 26.66406
2718.5 26.466501
2719 26.60546
2719.5 26.4999
2720 26.769498
2720.5 26.484653
2721 26.682049
2721.5 26.474598
2722 26.410636
2722.5 26.284119
2723 26.043454
2723.5 26.169384
2724 26.110184
2724.5 26.215595
2725 25.947419
2725.5 26.377964
2726 26.174277
2726.5 26.416147
2727 26.332411
2727.5 26.471567
2728 26.65877
2728.5 26.637962
2729 26.847315
2729.5 26.690567
2730 26.854473
2730.5 26.684335
2731 26.893136
2731.5 26.774991
2732 26.881233
2732.5 26.941198
2733 26.872197
2733.5 26.970208
2734 26.786086
2734.5 27.072552
2735 26.678014
2735.5 26.926625
2736 26.64516
2736.5 26.790899
2737 26.709187
2737.5 26.755875
2738 26.564968
2738.5 26.477864
2739 26.617488
2739.5 26.384425
2740 26.776084
2740.5 26.501408
2741 26.576185
2741.5 26.454324
2742 26.544163
2742.5 26.466393
2743 26.326746
2743.5 26.532194
2744 26.28707
2744.5 26.554292
2745 26.327416
2745.5 26.782456
2746 26.528263
2746.5 26.871908
2747 26.650104
2747.5 26.834205
2748 26.772803
2748.5 26.858395
2749 26.969865
2749.5 26.888585
2750 27.086845
2750.5 26.841661
2751 27.067637
2751.5 26.996326
2752 27.053663
2752.5 27.03858
2753 27.045107
2753.5 27.080148
2754 26.995617
2754.5 27.219883
2755 26.813179
2755.5 27.121344
2756 26.724505
2756.5 26.837614
2757 26.494008
2757.5 26.815882
2758 26.678607
2758.5 26.728135
2759 26.705357
2759.5 26.264632
2760 26.634911
2760.5 26.550418
2761 26.732582
2761.5 26.60538
2762 27.080113
2762.5 27.017468
2763 27.059028
2763.5 27.110648
2764 26.982394
2764.5 27.035367
2765 26.885468
2765.5 27.15123
2766 26.827922
2766.5 26.980305
2767 26.714781
2767.5 26.762971
2768 26.680493
2768.5 26.601774
2769 26.771241
2769.5 26.708561
2770 26.802841
2770.5 26.622221
2771 26.938337
2771.5 26.790214
2772 26.941395
2772.5 26.774824
2773 27.017695
2773.5 26.92624
2774 26.994342
2774.5 26.986
2775 26.998094
2775.5 27.106577
2776 26.955947
2776.5 27.023834
2777 26.95922
2777.5 27.167347
2778 27.00229
2778.5 27.1543
2779 27.012911
2779.5 27.005649
2780 27.13466
2780.5 26.963565
2781 26.993784
2781.5 26.680282
2782 27.014449
2782.5 26.808107
2783 27.000013
2783.5 26.903468
2784 27.022636
2784.5 26.923156
2785 26.97596
2785.5 27.023956
2786 26.913273
2786.5 27.182943
2787 27.027506
2787.5 27.135441
2788 26.953435
2788.5 26.977018
2789 27.096388
2789.5 27.117434
2790 27.16952
2790.5 27.026337
2791 27.286223
2791.5 26.945874
2792 27.135906
2792.5 26.789773
2793 27.02561
2793.5 26.869786
2794 27.137259
2794.5 27.175632
2795 27.208078
2795.5 27.356461
2796 27.136883
2796.5 27.362099
2797 27.231857
2797.5 27.374762
2798 27.159894
2798.5 27.358365
2799 27.243549
2799.5 27.423424
2800 27.787593
##END=
