45.002461930 125.0
45.007385786 144.0
45.012309642 107.0
45.017233498 156.0
45.022157354 125.0
45.027081210 148.0
45.032005066 147.0
45.036928922 137.0
45.041852778 115.0
45.046776634 135.0
45.051700490 148.0
45.056624346 141.0
45.061548202 132.0
45.066472058 120.0
45.071395914 107.0
45.076319770 129.0
45.081243626 117.0
45.086167482 137.0
45.091091338 120.0
45.096015194 123.0
45.100939050 112.0
45.105862906 146.0
45.110786762 115.0
45.115710618 127.0
45.120634474 115.0
45.125558330 114.0
45.130482186 146.0
45.135406042 118.0
45.140329898 149.0
45.145253754 121.0
45.150177610 134.0
45.155101466 141.0
45.160025322 135.0
45.164949178 110.0
45.169873034 116.0
45.174796890 124.0
45.179720746 150.0
45.184644602 108.0
45.189568458 116.0
45.194492314 114.0
45.199416170 131.0
45.204340026 114.0
45.209263882 119.0
45.214187738 119.0
45.219111594 107.0
45.224035450 131.0
45.228959306 128.0
45.233883162 117.0
45.238807018 131.0
45.243730874 134.0
45.248654730 119.0
45.253578587 128.0
45.258502443 105.0
45.263426299 105.0
45.268350155 129.0
45.273274011 135.0
45.278197867 132.0
45.283121723 108.0
45.288045579 120.0
45.292969435 124.0
45.297893291 115.0
45.302817147 128.0
45.307741003 109.0
45.312664859 129.0
45.317588715 133.0
45.322512571 105.0
45.327436427 134.0
45.332360283 123.0
45.337284139 126.0
45.342207995 136.0
45.347131851 130.0
45.352055707 112.0
45.356979563 89.0
45.361903419 126.0
45.366827275 129.0
45.371751131 114.0
45.376674987 113.0
45.381598843 117.0
45.386522699 121.0
45.391446555 124.0
45.396370411 115.0
45.401294267 110.0
45.406218123 115.0
45.411141979 121.0
45.416065835 125.0
45.420989691 121.0
45.425913547 122.0
45.430837403 103.0
45.435761259 130.0
45.440685115 121.0
45.445608971 123.0
45.450532827 127.0
45.455456683 121.0
45.460380539 112.0
45.465304395 139.0
45.470228251 128.0
45.475152107 126.0
45.480075963 133.0
45.484999819 126.0
45.489923675 120.0
45.494847531 152.0
45.499771387 134.0
45.504695243 109.0
45.509619099 123.0
45.514542955 130.0
45.519466811 138.0
45.524390667 126.0
45.529314523 123.0
45.534238379 121.0
45.539162235 123.0
45.544086091 115.0
45.549009947 138.0
45.553933803 117.0
45.558857659 112.0
45.563781515 116.0
45.568705371 118.0
45.573629227 120.0
45.578553083 128.0
45.583476939 138.0
45.588400795 116.0
45.593324651 135.0
45.598248507 119.0
45.603172363 129.0
45.608096219 138.0
45.613020075 118.0
45.617943931 126.0
45.622867787 120.0
45.627791643 132.0
45.632715499 104.0
45.637639355 103.0
45.642563211 134.0
45.647487067 131.0
45.652410923 115.0
45.657334779 117.0
45.662258635 109.0
45.667182491 111.0
45.672106347 112.0
45.677030203 104.0
45.681954059 156.0
45.686877915 139.0
45.691801771 121.0
45.696725627 97.0
45.701649483 135.0
45.706573339 119.0
45.711497195 137.0
45.716421051 122.0
45.721344907 118.0
45.726268763 126.0
45.731192619 121.0
45.736116475 119.0
45.741040331 125.0
45.745964187 120.0
45.750888043 118.0
45.755811900 122.0
45.760735756 107.0
45.765659612 99.0
45.770583468 121.0
45.775507324 111.0
45.780431180 102.0
45.785355036 112.0
45.790278892 107.0
45.795202748 118.0
45.800126604 126.0
45.805050460 107.0
45.809974316 92.0
45.814898172 136.0
45.819822028 107.0
45.824745884 120.0
45.829669740 132.0
45.834593596 115.0
45.839517452 118.0
45.844441308 118.0
45.849365164 113.0
45.854289020 132.0
45.859212876 119.0
45.864136732 117.0
45.869060588 113.0
45.873984444 135.0
45.878908300 114.0
45.883832156 144.0
45.888756012 123.0
45.893679868 111.0
45.898603724 98.0
45.903527580 109.0
45.908451436 138.0
45.913375292 135.0
45.918299148 134.0
45.923223004 132.0
45.928146860 104.0
45.933070716 118.0
45.937994572 116.0
45.942918428 128.0
45.947842284 128.0
45.952766140 112.0
45.957689996 117.0
45.962613852 131.0
45.967537708 121.0
45.972461564 116.0
45.977385420 120.0
45.982309276 98.0
45.987233132 117.0
45.992156988 120.0
45.997080844 124.0
46.002004700 114.0
46.006928556 107.0
46.011852412 150.0
46.016776268 117.0
46.021700124 134.0
46.026623980 127.0
46.031547836 115.0
46.036471692 135.0
46.041395548 136.0
46.046319404 107.0
46.051243260 112.0
46.056167116 108.0
46.061090972 114.0
46.066014828 110.0
46.070938684 108.0
46.075862540 111.0
46.080786396 113.0
46.085710252 139.0
46.090634108 108.0
46.095557964 125.0
46.100481820 112.0
46.105405676 109.0
46.110329532 133.0
46.115253388 119.0
46.120177244 101.0
46.125101100 141.0
46.130024956 125.0
46.134948812 110.0
46.139872668 94.0
46.144796524 105.0
46.149720380 134.0
46.154644236 119.0
46.159568092 118.0
46.164491948 129.0
46.169415804 109.0
46.174339660 113.0
46.179263516 120.0
46.184187372 136.0
46.189111228 122.0
46.194035084 114.0
46.198958940 109.0
46.203882796 117.0
46.208806652 107.0
46.213730508 121.0
46.218654364 138.0
46.223578220 119.0
46.228502076 115.0
46.233425932 130.0
46.238349788 110.0
46.243273644 118.0
46.248197500 127.0
46.253121357 138.0
46.258045213 135.0
46.262969069 116.0
46.267892925 130.0
46.272816781 116.0
46.277740637 125.0
46.282664493 116.0
46.287588349 125.0
46.292512205 134.0
46.297436061 116.0
46.302359917 117.0
46.307283773 132.0
46.312207629 120.0
46.317131485 103.0
46.322055341 128.0
46.326979197 110.0
46.331903053 100.0
46.336826909 129.0
46.341750765 121.0
46.346674621 131.0
46.351598477 108.0
46.356522333 116.0
46.361446189 109.0
46.366370045 137.0
46.371293901 110.0
46.376217757 137.0
46.381141613 107.0
46.386065469 125.0
46.390989325 130.0
46.395913181 119.0
46.400837037 147.0
46.405760893 111.0
46.410684749 136.0
46.415608605 137.0
46.420532461 133.0
46.425456317 146.0
46.430380173 127.0
46.435304029 105.0
46.440227885 123.0
46.445151741 133.0
46.450075597 115.0
46.454999453 127.0
46.459923309 112.0
46.464847165 118.0
46.469771021 127.0
46.474694877 112.0
46.479618733 125.0
46.484542589 132.0
46.489466445 133.0
46.494390301 99.0
46.499314157 106.0
46.504238013 121.0
46.509161869 127.0
46.514085725 111.0
46.519009581 131.0
46.523933437 133.0
46.528857293 127.0
46.533781149 121.0
46.538705005 116.0
46.543628861 119.0
46.548552717 111.0
46.553476573 115.0
46.558400429 122.0
46.563324285 104.0
46.568248141 132.0
46.573171997 111.0
46.578095853 102.0
46.583019709 110.0
46.587943565 145.0
46.592867421 112.0
46.597791277 138.0
46.602715133 108.0
46.607638989 110.0
46.612562845 117.0
46.617486701 126.0
46.622410557 112.0
46.627334413 115.0
46.632258269 129.0
46.637182125 126.0
46.642105981 133.0
46.647029837 111.0
46.651953693 137.0
46.656877549 139.0
46.661801405 114.0
46.666725261 123.0
46.671649117 129.0
46.676572973 127.0
46.681496829 116.0
46.686420685 136.0
46.691344541 131.0
46.696268397 148.0
46.701192253 120.0
46.706116109 124.0
46.711039965 124.0
46.715963821 134.0
46.720887677 146.0
46.725811533 140.0
46.730735389 128.0
46.735659245 119.0
46.740583101 124.0
46.745506957 154.0
46.750430813 141.0
46.755354670 130.0
46.760278526 127.0
46.765202382 136.0
46.770126238 134.0
46.775050094 130.0
46.779973950 148.0
46.784897806 137.0
46.789821662 113.0
46.794745518 122.0
46.799669374 123.0
46.804593230 124.0
46.809517086 134.0
46.814440942 156.0
46.819364798 144.0
46.824288654 125.0
46.829212510 127.0
46.834136366 145.0
46.839060222 139.0
46.843984078 126.0
46.848907934 135.0
46.853831790 133.0
46.858755646 128.0
46.863679502 113.0
46.868603358 124.0
46.873527214 129.0
46.878451070 143.0
46.883374926 130.0
46.888298782 108.0
46.893222638 130.0
46.898146494 141.0
46.903070350 130.0
46.907994206 120.0
46.912918062 134.0
46.917841918 142.0
46.922765774 153.0
46.927689630 136.0
46.932613486 127.0
46.937537342 146.0
46.942461198 140.0
46.947385054 143.0
46.952308910 145.0
46.957232766 138.0
46.962156622 150.0
46.967080478 142.0
46.972004334 147.0
46.976928190 161.0
46.981852046 148.0
46.986775902 156.0
46.991699758 171.0
46.996623614 191.0
47.001547470 143.0
47.006471326 157.0
47.011395182 159.0
47.016319038 173.0
47.021242894 155.0
47.026166750 170.0
47.031090606 180.0
47.036014462 171.0
47.040938318 180.0
47.045862174 218.0
47.050786030 275.0
47.055709886 262.0
47.060633742 313.0
47.065557598 351.0
47.070481454 445.0
47.075405310 513.0
47.080329166 577.0
47.085253022 668.0
47.090176878 810.0
47.095100734 926.0
47.100024590 1095.0
47.104948446 1233.0
47.109872302 1236.0
47.114796158 1330.0
47.119720014 1303.0
47.124643870 1332.0
47.129567726 1301.0
47.134491582 1330.0
47.139415438 1191.0
47.144339294 1119.0
47.149263150 1065.0
47.154187006 917.0
47.159110862 795.0
47.164034718 708.0
47.168958574 678.0
47.173882430 645.0
47.178806286 551.0
47.183730142 559.0
47.188653998 530.0
47.193577854 527.0
47.198501710 543.0
47.203425566 568.0
47.208349422 550.0
47.213273278 513.0
47.218197134 447.0
47.223120990 458.0
47.228044846 358.0
47.232968702 368.0
47.237892558 318.0
47.242816414 312.0
47.247740270 258.0
47.252664127 260.0
47.257587983 210.0
47.262511839 201.0
47.267435695 198.0
47.272359551 209.0
47.277283407 180.0
47.282207263 186.0
47.287131119 185.0
47.292054975 198.0
47.296978831 180.0
47.301902687 172.0
47.306826543 175.0
47.311750399 172.0
47.316674255 159.0
47.321598111 163.0
47.326521967 153.0
47.331445823 160.0
47.336369679 172.0
47.341293535 160.0
47.346217391 150.0
47.351141247 164.0
47.356065103 174.0
47.360988959 130.0
47.365912815 138.0
47.370836671 141.0
47.375760527 134.0
47.380684383 143.0
47.385608239 164.0
47.390532095 157.0
47.395455951 139.0
47.400379807 150.0
47.405303663 156.0
47.410227519 164.0
47.415151375 141.0
47.420075231 137.0
47.424999087 138.0
47.429922943 146.0
47.434846799 158.0
47.439770655 140.0
47.444694511 139.0
47.449618367 145.0
47.454542223 160.0
47.459466079 114.0
47.464389935 140.0
47.469313791 143.0
47.474237647 115.0
47.479161503 117.0
47.484085359 149.0
47.489009215 132.0
47.493933071 144.0
47.498856927 156.0
47.503780783 143.0
47.508704639 135.0
47.513628495 136.0
47.518552351 151.0
47.523476207 162.0
47.528400063 124.0
47.533323919 162.0
47.538247775 129.0
47.543171631 130.0
47.548095487 134.0
47.553019343 136.0
47.557943199 131.0
47.562867055 131.0
47.567790911 134.0
47.572714767 147.0
47.577638623 138.0
47.582562479 137.0
47.587486335 155.0
47.592410191 158.0
47.597334047 149.0
47.602257903 107.0
47.607181759 110.0
47.612105615 156.0
47.617029471 153.0
47.621953327 138.0
47.626877183 134.0
47.631801039 137.0
47.636724895 140.0
47.641648751 139.0
47.646572607 144.0
47.651496463 144.0
47.656420319 127.0
47.661344175 130.0
47.666268031 119.0
47.671191887 121.0
47.676115743 133.0
47.681039599 117.0
47.685963455 120.0
47.690887311 113.0
47.695811167 160.0
47.700735023 154.0
47.705658879 117.0
47.710582735 140.0
47.715506591 141.0
47.720430447 113.0
47.725354303 132.0
47.730278159 141.0
47.735202015 133.0
47.740125871 139.0
47.745049727 141.0
47.749973583 133.0
47.754897440 132.0
47.759821296 117.0
47.764745152 145.0
47.769669008 137.0
47.774592864 136.0
47.779516720 115.0
47.784440576 129.0
47.789364432 142.0
47.794288288 130.0
47.799212144 146.0
47.804136000 168.0
47.809059856 151.0
47.813983712 127.0
47.818907568 135.0
47.823831424 142.0
47.828755280 124.0
47.833679136 131.0
47.838602992 127.0
47.843526848 141.0
47.848450704 131.0
47.853374560 138.0
47.858298416 139.0
47.863222272 122.0
47.868146128 129.0
47.873069984 133.0
47.877993840 162.0
47.882917696 135.0
47.887841552 109.0
47.892765408 141.0
47.897689264 124.0
47.902613120 150.0
47.907536976 139.0
47.912460832 137.0
47.917384688 127.0
47.922308544 127.0
47.927232400 128.0
47.932156256 147.0
47.937080112 131.0
47.942003968 131.0
47.946927824 137.0
47.951851680 138.0
47.956775536 123.0
47.961699392 149.0
47.966623248 139.0
47.971547104 128.0
47.976470960 118.0
47.981394816 127.0
47.986318672 147.0
47.991242528 138.0
47.996166384 132.0
48.001090240 133.0
48.006014096 141.0
48.010937952 121.0
48.015861808 143.0
48.020785664 129.0
48.025709520 152.0
48.030633376 123.0
48.035557232 150.0
48.040481088 98.0
48.045404944 159.0
48.050328800 134.0
48.055252656 120.0
48.060176512 131.0
48.065100368 130.0
48.070024224 138.0
48.074948080 139.0
48.079871936 134.0
48.084795792 157.0
48.089719648 150.0
48.094643504 136.0
48.099567360 153.0
48.104491216 147.0
48.109415072 111.0
48.114338928 142.0
48.119262784 121.0
48.124186640 145.0
48.129110496 156.0
48.134034352 143.0
48.138958208 138.0
48.143882064 157.0
48.148805920 132.0
48.153729776 152.0
48.158653632 129.0
48.163577488 154.0
48.168501344 154.0
48.173425200 140.0
48.178349056 132.0
48.183272912 118.0
48.188196768 133.0
48.193120624 133.0
48.198044480 133.0
48.202968336 136.0
48.207892192 123.0
48.212816048 103.0
48.217739904 136.0
48.222663760 141.0
48.227587616 125.0
48.232511472 160.0
48.237435328 121.0
48.242359184 127.0
48.247283040 148.0
48.252206897 147.0
48.257130753 143.0
48.262054609 161.0
48.266978465 139.0
48.271902321 140.0
48.276826177 116.0
48.281750033 152.0
48.286673889 131.0
48.291597745 147.0
48.296521601 135.0
48.301445457 130.0
48.306369313 132.0
48.311293169 151.0
48.316217025 140.0
48.321140881 144.0
48.326064737 113.0
48.330988593 137.0
48.335912449 128.0
48.340836305 136.0
48.345760161 129.0
48.350684017 122.0
48.355607873 145.0
48.360531729 141.0
48.365455585 147.0
48.370379441 114.0
48.375303297 145.0
48.380227153 134.0
48.385151009 124.0
48.390074865 129.0
48.394998721 128.0
48.399922577 117.0
48.404846433 134.0
48.409770289 157.0
48.414694145 133.0
48.419618001 146.0
48.424541857 125.0
48.429465713 146.0
48.434389569 140.0
48.439313425 113.0
48.444237281 124.0
48.449161137 138.0
48.454084993 116.0
48.459008849 147.0
48.463932705 151.0
48.468856561 128.0
48.473780417 139.0
48.478704273 119.0
48.483628129 131.0
48.488551985 125.0
48.493475841 131.0
48.498399697 150.0
48.503323553 132.0
48.508247409 153.0
48.513171265 152.0
48.518095121 134.0
48.523018977 130.0
48.527942833 124.0
48.532866689 147.0
48.537790545 146.0
48.542714401 151.0
48.547638257 104.0
48.552562113 114.0
48.557485969 123.0
48.562409825 141.0
48.567333681 144.0
48.572257537 152.0
48.577181393 149.0
48.582105249 145.0
48.587029105 156.0
48.591952961 115.0
48.596876817 126.0
48.601800673 124.0
48.606724529 151.0
48.611648385 144.0
48.616572241 127.0
48.621496097 120.0
48.626419953 123.0
48.631343809 122.0
48.636267665 153.0
48.641191521 146.0
48.646115377 159.0
48.651039233 141.0
48.655963089 140.0
48.660886945 151.0
48.665810801 153.0
48.670734657 164.0
48.675658513 142.0
48.680582369 151.0
48.685506225 136.0
48.690430081 134.0
48.695353937 139.0
48.700277793 154.0
48.705201649 142.0
48.710125505 125.0
48.715049361 148.0
48.719973217 143.0
48.724897073 143.0
48.729820929 134.0
48.734744785 178.0
48.739668641 137.0
48.744592497 143.0
48.749516353 139.0
48.754440210 140.0
48.759364066 141.0
48.764287922 137.0
48.769211778 147.0
48.774135634 140.0
48.779059490 166.0
48.783983346 159.0
48.788907202 135.0
48.793831058 132.0
48.798754914 166.0
48.803678770 145.0
48.808602626 140.0
48.813526482 146.0
48.818450338 135.0
48.823374194 142.0
48.828298050 131.0
48.833221906 138.0
48.838145762 164.0
48.843069618 142.0
48.847993474 158.0
48.852917330 150.0
48.857841186 136.0
48.862765042 170.0
48.867688898 135.0
48.872612754 172.0
48.877536610 149.0
48.882460466 150.0
48.887384322 147.0
48.892308178 144.0
48.897232034 147.0
48.902155890 158.0
48.907079746 149.0
48.912003602 144.0
48.916927458 150.0
48.921851314 142.0
48.926775170 157.0
48.931699026 154.0
48.936622882 159.0
48.941546738 144.0
48.946470594 143.0
48.951394450 152.0
48.956318306 144.0
48.961242162 158.0
48.966166018 157.0
48.971089874 159.0
48.976013730 153.0
48.980937586 135.0
48.985861442 152.0
48.990785298 130.0
48.995709154 160.0
49.000633010 164.0
49.005556866 137.0
49.010480722 133.0
49.015404578 149.0
49.020328434 176.0
49.025252290 157.0
49.030176146 140.0
49.035100002 134.0
49.040023858 153.0
49.044947714 163.0
49.049871570 138.0
49.054795426 163.0
49.059719282 159.0
49.064643138 153.0
49.069566994 168.0
49.074490850 184.0
49.079414706 152.0
49.084338562 144.0
49.089262418 162.0
49.094186274 142.0
49.099110130 149.0
49.104033986 132.0
49.108957842 148.0
49.113881698 158.0
49.118805554 155.0
49.123729410 162.0
49.128653266 165.0
49.133577122 140.0
49.138500978 168.0
49.143424834 168.0
49.148348690 178.0
49.153272546 159.0
49.158196402 149.0
49.163120258 162.0
49.168044114 179.0
49.172967970 180.0
49.177891826 158.0
49.182815682 178.0
49.187739538 149.0
49.192663394 148.0
49.197587250 143.0
49.202511106 160.0
49.207434962 163.0
49.212358818 181.0
49.217282674 161.0
49.222206530 187.0
49.227130386 149.0
49.232054242 164.0
49.236978098 171.0
49.241901954 171.0
49.246825810 161.0
49.251749667 184.0
49.256673523 170.0
49.261597379 190.0
49.266521235 172.0
49.271445091 175.0
49.276368947 184.0
49.281292803 178.0
49.286216659 188.0
49.291140515 193.0
49.296064371 196.0
49.300988227 187.0
49.305912083 186.0
49.310835939 193.0
49.315759795 150.0
49.320683651 180.0
49.325607507 200.0
49.330531363 193.0
49.335455219 174.0
49.340379075 189.0
49.345302931 202.0
49.350226787 175.0
49.355150643 183.0
49.360074499 183.0
49.364998355 206.0
49.369922211 208.0
49.374846067 206.0
49.379769923 190.0
49.384693779 175.0
49.389617635 228.0
49.394541491 204.0
49.399465347 202.0
49.404389203 231.0
49.409313059 205.0
49.414236915 200.0
49.419160771 205.0
49.424084627 186.0
49.429008483 159.0
49.433932339 218.0
49.438856195 221.0
49.443780051 212.0
49.448703907 200.0
49.453627763 227.0
49.458551619 224.0
49.463475475 201.0
49.468399331 225.0
49.473323187 187.0
49.478247043 236.0
49.483170899 242.0
49.488094755 204.0
49.493018611 257.0
49.497942467 277.0
49.502866323 234.0
49.507790179 237.0
49.512714035 234.0
49.517637891 273.0
49.522561747 248.0
49.527485603 241.0
49.532409459 257.0
49.537333315 243.0
49.542257171 255.0
49.547181027 224.0
49.552104883 270.0
49.557028739 265.0
49.561952595 283.0
49.566876451 276.0
49.571800307 264.0
49.576724163 292.0
49.581648019 266.0
49.586571875 295.0
49.591495731 301.0
49.596419587 306.0
49.601343443 304.0
49.606267299 292.0
49.611191155 316.0
49.616115011 288.0
49.621038867 316.0
49.625962723 325.0
49.630886579 348.0
49.635810435 339.0
49.640734291 350.0
49.645658147 367.0
49.650582003 346.0
49.655505859 345.0
49.660429715 372.0
49.665353571 376.0
49.670277427 376.0
49.675201283 402.0
49.680125139 385.0
49.685048995 417.0
49.689972851 417.0
49.694896707 464.0
49.699820563 423.0
49.704744419 443.0
49.709668275 425.0
49.714592131 461.0
49.719515987 473.0
49.724439843 495.0
49.729363699 477.0
49.734287555 483.0
49.739211411 481.0
49.744135267 521.0
49.749059123 506.0
49.753982980 549.0
49.758906836 560.0
49.763830692 559.0
49.768754548 564.0
49.773678404 612.0
49.778602260 559.0
49.783526116 614.0
49.788449972 630.0
49.793373828 691.0
49.798297684 691.0
49.803221540 670.0
49.808145396 669.0
49.813069252 669.0
49.817993108 731.0
49.822916964 744.0
49.827840820 691.0
49.832764676 776.0
49.837688532 740.0
49.842612388 774.0
49.847536244 804.0
49.852460100 832.0
49.857383956 816.0
49.862307812 845.0
49.867231668 859.0
49.872155524 840.0
49.877079380 863.0
49.882003236 893.0
49.886927092 918.0
49.891850948 899.0
49.896774804 952.0
49.901698660 893.0
49.906622516 965.0
49.911546372 918.0
49.916470228 976.0
49.921394084 902.0
49.926317940 1016.0
49.931241796 982.0
49.936165652 1047.0
49.941089508 997.0
49.946013364 1023.0
49.950937220 1059.0
49.955861076 975.0
49.960784932 994.0
49.965708788 1105.0
49.970632644 1003.0
49.975556500 1095.0
49.980480356 1043.0
49.985404212 1067.0
49.990328068 1071.0
49.995251924 1140.0
50.000175780 1103.0
50.005099636 1089.0
50.010023492 1102.0
50.014947348 1145.0
50.019871204 1081.0
50.024795060 1090.0
50.029718916 1108.0
50.034642772 1107.0
50.039566628 1146.0
50.044490484 1144.0
50.049414340 1022.0
50.054338196 1020.0
50.059262052 1094.0
50.064185908 1069.0
50.069109764 1127.0
50.074033620 1084.0
50.078957476 1086.0
50.083881332 1000.0
50.088805188 1086.0
50.093729044 1055.0
50.098652900 992.0
50.103576756 1031.0
50.108500612 1033.0
50.113424468 986.0
50.118348324 983.0
50.123272180 996.0
50.128196036 956.0
50.133119892 965.0
50.138043748 968.0
50.142967604 992.0
50.147891460 966.0
50.152815316 904.0
50.157739172 925.0
50.162663028 923.0
50.167586884 892.0
50.172510740 882.0
50.177434596 865.0
50.182358452 840.0
50.187282308 824.0
50.192206164 842.0
50.197130020 777.0
50.202053876 764.0
50.206977732 760.0
50.211901588 770.0
50.216825444 757.0
50.221749300 724.0
50.226673156 700.0
50.231597012 700.0
50.236520868 723.0
50.241444724 706.0
50.246368580 696.0
50.251292437 619.0
50.256216293 631.0
50.261140149 616.0
50.266064005 611.0
50.270987861 563.0
50.275911717 652.0
50.280835573 609.0
50.285759429 590.0
50.290683285 574.0
50.295607141 574.0
50.300530997 563.0
50.305454853 507.0
50.310378709 548.0
50.315302565 483.0
50.320226421 505.0
50.325150277 458.0
50.330074133 450.0
50.334997989 449.0
50.339921845 454.0
50.344845701 453.0
50.349769557 480.0
50.354693413 412.0
50.359617269 426.0
50.364541125 447.0
50.369464981 432.0
50.374388837 408.0
50.379312693 438.0
50.384236549 415.0
50.389160405 396.0
50.394084261 404.0
50.399008117 368.0
50.403931973 382.0
50.408855829 363.0
50.413779685 359.0
50.418703541 345.0
50.423627397 353.0
50.428551253 321.0
50.433475109 311.0
50.438398965 326.0
50.443322821 352.0
50.448246677 337.0
50.453170533 374.0
50.458094389 344.0
50.463018245 315.0
50.467942101 296.0
50.472865957 273.0
50.477789813 291.0
50.482713669 341.0
50.487637525 325.0
50.492561381 294.0
50.497485237 293.0
50.502409093 319.0
50.507332949 305.0
50.512256805 321.0
50.517180661 304.0
50.522104517 311.0
50.527028373 302.0
50.531952229 239.0
50.536876085 292.0
50.541799941 300.0
50.546723797 285.0
50.551647653 284.0
50.556571509 237.0
50.561495365 237.0
50.566419221 255.0
50.571343077 266.0
50.576266933 280.0
50.581190789 245.0
50.586114645 272.0
50.591038501 265.0
50.595962357 286.0
50.600886213 246.0
50.605810069 243.0
50.610733925 256.0
50.615657781 244.0
50.620581637 233.0
50.625505493 230.0
50.630429349 246.0
50.635353205 236.0
50.640277061 241.0
50.645200917 241.0
50.650124773 239.0
50.655048629 213.0
50.659972485 217.0
50.664896341 212.0
50.669820197 239.0
50.674744053 212.0
50.679667909 224.0
50.684591765 214.0
50.689515621 213.0
50.694439477 261.0
50.699363333 203.0
50.704287189 233.0
50.709211045 263.0
50.714134901 231.0
50.719058757 206.0
50.723982613 201.0
50.728906469 219.0
50.733830325 230.0
50.738754181 204.0
50.743678037 223.0
50.748601893 213.0
50.753525750 213.0
50.758449606 200.0
50.763373462 226.0
50.768297318 200.0
50.773221174 216.0
50.778145030 213.0
50.783068886 205.0
50.787992742 194.0
50.792916598 216.0
50.797840454 209.0
50.802764310 207.0
50.807688166 210.0
50.812612022 202.0
50.817535878 203.0
50.822459734 218.0
50.827383590 197.0
50.832307446 235.0
50.837231302 218.0
50.842155158 258.0
50.847079014 227.0
50.852002870 214.0
50.856926726 192.0
50.861850582 204.0
50.866774438 214.0
50.871698294 238.0
50.876622150 229.0
50.881546006 211.0
50.886469862 209.0
50.891393718 232.0
50.896317574 231.0
50.901241430 200.0
50.906165286 227.0
50.911089142 229.0
50.916012998 221.0
50.920936854 229.0
50.925860710 238.0
50.930784566 211.0
50.935708422 204.0
50.940632278 274.0
50.945556134 289.0
50.950479990 207.0
50.955403846 231.0
50.960327702 232.0
50.965251558 211.0
50.970175414 234.0
50.975099270 230.0
50.980023126 222.0
50.984946982 217.0
50.989870838 264.0
50.994794694 221.0
50.999718550 234.0
51.004642406 219.0
51.009566262 237.0
51.014490118 232.0
51.019413974 222.0
51.024337830 190.0
51.029261686 231.0
51.034185542 225.0
51.039109398 255.0
51.044033254 217.0
51.048957110 213.0
51.053880966 224.0
51.058804822 226.0
51.063728678 265.0
51.068652534 225.0
51.073576390 228.0
51.078500246 285.0
51.083424102 203.0
51.088347958 261.0
51.093271814 226.0
51.098195670 265.0
51.103119526 226.0
51.108043382 260.0
51.112967238 265.0
51.117891094 275.0
51.122814950 224.0
51.127738806 266.0
51.132662662 235.0
51.137586518 291.0
51.142510374 290.0
51.147434230 268.0
51.152358086 257.0
51.157281942 275.0
51.162205798 290.0
51.167129654 306.0
51.172053510 280.0
51.176977366 293.0
51.181901222 267.0
51.186825078 289.0
51.191748934 307.0
51.196672790 287.0
51.201596646 278.0
51.206520502 294.0
51.211444358 235.0
51.216368214 314.0
51.221292070 258.0
51.226215926 282.0
51.231139782 295.0
51.236063638 283.0
51.240987494 290.0
51.245911350 300.0
51.250835207 309.0
51.255759063 304.0
51.260682919 308.0
51.265606775 304.0
51.270530631 308.0
51.275454487 308.0
51.280378343 296.0
51.285302199 319.0
51.290226055 341.0
51.295149911 307.0
51.300073767 325.0
51.304997623 347.0
51.309921479 346.0
51.314845335 325.0
51.319769191 355.0
51.324693047 316.0
51.329616903 334.0
51.334540759 347.0
51.339464615 351.0
51.344388471 318.0
51.349312327 366.0
51.354236183 370.0
51.359160039 316.0
51.364083895 316.0
51.369007751 293.0
51.373931607 346.0
51.378855463 310.0
51.383779319 328.0
51.388703175 363.0
51.393627031 347.0
51.398550887 344.0
51.403474743 383.0
51.408398599 343.0
51.413322455 361.0
51.418246311 351.0
51.423170167 363.0
51.428094023 356.0
51.433017879 380.0
51.437941735 355.0
51.442865591 341.0
51.447789447 388.0
51.452713303 354.0
51.457637159 378.0
51.462561015 393.0
51.467484871 378.0
51.472408727 367.0
51.477332583 359.0
51.482256439 385.0
51.487180295 364.0
51.492104151 372.0
51.497028007 399.0
51.501951863 399.0
51.506875719 366.0
51.511799575 370.0
51.516723431 397.0
51.521647287 386.0
51.526571143 401.0
51.531494999 390.0
51.536418855 392.0
51.541342711 430.0
51.546266567 404.0
51.551190423 378.0
51.556114279 406.0
51.561038135 399.0
51.565961991 398.0
51.570885847 409.0
51.575809703 388.0
51.580733559 391.0
51.585657415 453.0
51.590581271 407.0
51.595505127 426.0
51.600428983 444.0
51.605352839 417.0
51.610276695 432.0
51.615200551 487.0
51.620124407 432.0
51.625048263 428.0
51.629972119 488.0
51.634895975 419.0
51.639819831 453.0
51.644743687 429.0
51.649667543 444.0
51.654591399 439.0
51.659515255 461.0
51.664439111 439.0
51.669362967 507.0
51.674286823 468.0
51.679210679 481.0
51.684134535 510.0
51.689058391 485.0
51.693982247 510.0
51.698906103 510.0
51.703829959 493.0
51.708753815 520.0
51.713677671 478.0
51.718601527 525.0
51.723525383 497.0
51.728449239 508.0
51.733373095 563.0
51.738296951 545.0
51.743220807 560.0
51.748144663 475.0
51.753068520 501.0
51.757992376 508.0
51.762916232 542.0
51.767840088 528.0
51.772763944 508.0
51.777687800 551.0
51.782611656 549.0
51.787535512 533.0
51.792459368 534.0
51.797383224 533.0
51.802307080 581.0
51.807230936 560.0
51.812154792 560.0
51.817078648 576.0
51.822002504 559.0
51.826926360 541.0
51.831850216 597.0
51.836774072 588.0
51.841697928 560.0
51.846621784 581.0
51.851545640 597.0
51.856469496 596.0
51.861393352 573.0
51.866317208 589.0
51.871241064 618.0
51.876164920 612.0
51.881088776 590.0
51.886012632 625.0
51.890936488 617.0
51.895860344 654.0
51.900784200 605.0
51.905708056 630.0
51.910631912 642.0
51.915555768 703.0
51.920479624 636.0
51.925403480 675.0
51.930327336 685.0
51.935251192 683.0
51.940175048 688.0
51.945098904 693.0
51.950022760 722.0
51.954946616 732.0
51.959870472 637.0
51.964794328 702.0
51.969718184 690.0
51.974642040 699.0
51.979565896 693.0
51.984489752 735.0
51.989413608 695.0
51.994337464 722.0
51.999261320 812.0
52.004185176 773.0
52.009109032 791.0
52.014032888 824.0
52.018956744 822.0
52.023880600 864.0
52.028804456 773.0
52.033728312 787.0
52.038652168 863.0
52.043576024 822.0
52.048499880 848.0
52.053423736 918.0
52.058347592 955.0
52.063271448 881.0
52.068195304 841.0
52.073119160 914.0
52.078043016 942.0
52.082966872 1004.0
52.087890728 999.0
52.092814584 1012.0
52.097738440 1032.0
52.102662296 1037.0
52.107586152 1060.0
52.112510008 1082.0
52.117433864 1153.0
52.122357720 1148.0
52.127281576 1101.0
52.132205432 1163.0
52.137129288 1139.0
52.142053144 1221.0
52.146977000 1166.0
52.151900856 1255.0
52.156824712 1304.0
52.161748568 1327.0
52.166672424 1402.0
52.171596280 1400.0
52.176520136 1468.0
52.181443992 1510.0
52.186367848 1528.0
52.191291704 1715.0
52.196215560 1772.0
52.201139416 1876.0
52.206063272 1949.0
52.210987128 1994.0
52.215910984 2254.0
52.220834840 2291.0
52.225758696 2585.0
52.230682552 2648.0
52.235606408 2821.0
52.240530264 3042.0
52.245454120 3106.0
52.250377977 3262.0
52.255301833 3372.0
52.260225689 3557.0
52.265149545 3577.0
52.270073401 3731.0
52.274997257 3717.0
52.279921113 3825.0
52.284844969 3847.0
52.289768825 3830.0
52.294692681 3894.0
52.299616537 3682.0
52.304540393 3810.0
52.309464249 3701.0
52.314388105 3697.0
52.319311961 3785.0
52.324235817 3865.0
52.329159673 3714.0
52.334083529 3726.0
52.339007385 3790.0
52.343931241 3739.0
52.348855097 3999.0
52.353778953 4031.0
52.358702809 4094.0
52.363626665 4320.0
52.368550521 4534.0
52.373474377 4751.0
52.378398233 5015.0
52.383322089 5357.0
52.388245945 5571.0
52.393169801 6140.0
52.398093657 6782.0
52.403017513 7355.0
52.407941369 7977.0
52.412865225 8732.0
52.417789081 9725.0
52.422712937 10840.0
52.427636793 12307.0
52.432560649 13878.0
52.437484505 15979.0
52.442408361 18998.0
52.447332217 22291.0
52.452256073 27745.0
52.457179929 34717.0
52.462103785 45414.0
52.467027641 61376.0
52.471951497 88573.0
52.476875353 127641.0
52.481799209 176965.0
52.486723065 224241.0
52.491646921 262331.0
52.496570777 288952.0
52.501494633 306798.0
52.506418489 316734.0
52.511342345 323443.0
52.516266201 322750.0
52.521190057 315290.0
52.526113913 301093.0
52.531037769 271010.0
52.535961625 229896.0
52.540885481 177415.0
52.545809337 131230.0
52.550733193 95189.0
52.555657049 70535.0
52.560580905 53323.0
52.565504761 42410.0
52.570428617 34695.0
52.575352473 29871.0
52.580276329 26770.0
52.585200185 25934.0
52.590124041 25534.0
52.595047897 26948.0
52.599971753 30392.0
52.604895609 36552.0
52.609819465 46200.0
52.614743321 61211.0
52.619667177 80121.0
52.624591033 102701.0
52.629514889 123087.0
52.634438745 139111.0
52.639362601 150911.0
52.644286457 157694.0
52.649210313 162023.0
52.654134169 162762.0
52.659058025 161022.0
52.663981881 154060.0
52.668905737 143339.0
52.673829593 126136.0
52.678753449 104544.0
52.683677305 82280.0
52.688601161 62622.0
52.693525017 45397.0
52.698448873 34641.0
52.703372729 26274.0
52.708296585 20431.0
52.713220441 16472.0
52.718144297 13869.0
52.723068153 11659.0
52.727992009 10216.0
52.732915865 8874.0
52.737839721 7935.0
52.742763577 7316.0
52.747687433 6517.0
52.752611290 6081.0
52.757535146 5480.0
52.762459002 5405.0
52.767382858 5001.0
52.772306714 4634.0
52.777230570 4349.0
52.782154426 4105.0
52.787078282 4005.0
52.792002138 3736.0
52.796925994 3595.0
52.801849850 3516.0
52.806773706 3396.0
52.811697562 3221.0
52.816621418 3040.0
52.821545274 2835.0
52.826469130 2860.0
52.831392986 2743.0
52.836316842 2676.0
52.841240698 2501.0
52.846164554 2458.0
52.851088410 2317.0
52.856012266 2294.0
52.860936122 2291.0
52.865859978 2153.0
52.870783834 2149.0
52.875707690 2135.0
52.880631546 1975.0
52.885555402 1995.0
52.890479258 1820.0
52.895403114 1952.0
52.900326970 1821.0
52.905250826 1735.0
52.910174682 1716.0
52.915098538 1659.0
52.920022394 1663.0
52.924946250 1556.0
52.929870106 1564.0
52.934793962 1511.0
52.939717818 1486.0
52.944641674 1496.0
52.949565530 1358.0
52.954489386 1427.0
52.959413242 1374.0
52.964337098 1316.0
52.969260954 1355.0
52.974184810 1312.0
52.979108666 1228.0
52.984032522 1309.0
52.988956378 1196.0
52.993880234 1220.0
52.998804090 1131.0
53.003727946 1162.0
53.008651802 1184.0
53.013575658 1046.0
53.018499514 1088.0
53.023423370 1068.0
53.028347226 1057.0
53.033271082 1068.0
53.038194938 997.0
53.043118794 965.0
53.048042650 991.0
53.052966506 967.0
53.057890362 1003.0
53.062814218 972.0
53.067738074 1025.0
53.072661930 955.0
53.077585786 959.0
53.082509642 936.0
53.087433498 959.0
53.092357354 861.0
53.097281210 841.0
53.102205066 880.0
53.107128922 842.0
53.112052778 851.0
53.116976634 847.0
53.121900490 820.0
53.126824346 760.0
53.131748202 804.0
53.136672058 784.0
53.141595914 817.0
53.146519770 755.0
53.151443626 715.0
53.156367482 726.0
53.161291338 699.0
53.166215194 728.0
53.171139050 732.0
53.176062906 718.0
53.180986762 681.0
53.185910618 650.0
53.190834474 693.0
53.195758330 667.0
53.200682186 690.0
53.205606042 655.0
53.210529898 644.0
53.215453754 593.0
53.220377610 631.0
53.225301466 664.0
53.230225322 648.0
53.235149178 606.0
53.240073034 599.0
53.244996890 596.0
53.249920747 627.0
53.254844603 588.0
53.259768459 575.0
53.264692315 549.0
53.269616171 565.0
53.274540027 540.0
53.279463883 487.0
53.284387739 585.0
53.289311595 559.0
53.294235451 558.0
53.299159307 540.0
53.304083163 527.0
53.309007019 597.0
53.313930875 543.0
53.318854731 531.0
53.323778587 527.0
53.328702443 523.0
53.333626299 451.0
53.338550155 506.0
53.343474011 506.0
53.348397867 450.0
53.353321723 480.0
53.358245579 500.0
53.363169435 521.0
53.368093291 435.0
53.373017147 457.0
53.377941003 464.0
53.382864859 480.0
53.387788715 462.0
53.392712571 472.0
53.397636427 461.0
53.402560283 438.0
53.407484139 441.0
53.412407995 463.0
53.417331851 437.0
53.422255707 423.0
53.427179563 426.0
53.432103419 440.0
53.437027275 436.0
53.441951131 394.0
53.446874987 423.0
53.451798843 403.0
53.456722699 443.0
53.461646555 410.0
53.466570411 431.0
53.471494267 389.0
53.476418123 390.0
53.481341979 386.0
53.486265835 403.0
53.491189691 394.0
53.496113547 384.0
53.501037403 368.0
53.505961259 343.0
53.510885115 378.0
53.515808971 386.0
53.520732827 380.0
53.525656683 352.0
53.530580539 335.0
53.535504395 374.0
53.540428251 349.0
53.545352107 356.0
53.550275963 344.0
53.555199819 342.0
53.560123675 343.0
53.565047531 353.0
53.569971387 349.0
53.574895243 302.0
53.579819099 340.0
53.584742955 319.0
53.589666811 359.0
53.594590667 318.0
53.599514523 338.0
53.604438379 332.0
53.609362235 305.0
53.614286091 336.0
53.619209947 336.0
53.624133803 315.0
53.629057659 300.0
53.633981515 331.0
53.638905371 288.0
53.643829227 300.0
53.648753083 276.0
53.653676939 290.0
53.658600795 285.0
53.663524651 283.0
53.668448507 277.0
53.673372363 301.0
53.678296219 279.0
53.683220075 283.0
53.688143931 255.0
53.693067787 226.0
53.697991643 266.0
53.702915499 268.0
53.707839355 305.0
53.712763211 283.0
53.717687067 234.0
53.722610923 263.0
53.727534779 285.0
53.732458635 278.0
53.737382491 224.0
53.742306347 218.0
53.747230203 238.0
53.752154060 209.0
53.757077916 264.0
53.762001772 265.0
53.766925628 197.0
53.771849484 272.0
53.776773340 218.0
53.781697196 260.0
53.786621052 215.0
53.791544908 222.0
53.796468764 213.0
53.801392620 232.0
53.806316476 207.0
53.811240332 192.0
53.816164188 207.0
53.821088044 202.0
53.826011900 208.0
53.830935756 230.0
53.835859612 197.0
53.840783468 227.0
53.845707324 221.0
53.850631180 226.0
53.855555036 213.0
53.860478892 217.0
53.865402748 214.0
53.870326604 230.0
53.875250460 195.0
53.880174316 214.0
53.885098172 188.0
53.890022028 211.0
53.894945884 206.0
53.899869740 205.0
53.904793596 202.0
53.909717452 225.0
53.914641308 192.0
53.919565164 181.0
53.924489020 181.0
53.929412876 195.0
53.934336732 182.0
53.939260588 227.0
53.944184444 200.0
53.949108300 194.0
53.954032156 190.0
53.958956012 175.0
53.963879868 210.0
53.968803724 195.0
53.973727580 200.0
53.978651436 220.0
53.983575292 176.0
53.988499148 197.0
53.993423004 196.0
53.998346860 195.0
54.003270716 168.0
54.008194572 185.0
54.013118428 163.0
54.018042284 190.0
54.022966140 204.0
54.027889996 179.0
54.032813852 204.0
54.037737708 230.0
54.042661564 188.0
54.047585420 198.0
54.052509276 176.0
54.057433132 161.0
54.062356988 198.0
54.067280844 172.0
54.072204700 184.0
54.077128556 189.0
54.082052412 181.0
54.086976268 170.0
54.091900124 174.0
54.096823980 180.0
54.101747836 179.0
54.106671692 194.0
54.111595548 150.0
54.116519404 162.0
54.121443260 183.0
54.126367116 169.0
54.131290972 168.0
54.136214828 178.0
54.141138684 168.0
54.146062540 186.0
54.150986396 183.0
54.155910252 166.0
54.160834108 162.0
54.165757964 173.0
54.170681820 165.0
54.175605676 181.0
54.180529532 182.0
54.185453388 192.0
54.190377244 161.0
54.195301100 150.0
54.200224956 163.0
54.205148812 172.0
54.210072668 158.0
54.214996524 158.0
54.219920380 183.0
54.224844236 180.0
54.229768092 178.0
54.234691948 166.0
54.239615804 183.0
54.244539660 171.0
54.249463517 157.0
54.254387373 174.0
54.259311229 154.0
54.264235085 170.0
54.269158941 157.0
54.274082797 193.0
54.279006653 172.0
54.283930509 138.0
54.288854365 168.0
54.293778221 175.0
54.298702077 164.0
54.303625933 160.0
54.308549789 192.0
54.313473645 172.0
54.318397501 164.0
54.323321357 156.0
54.328245213 174.0
54.333169069 169.0
54.338092925 155.0
54.343016781 168.0
54.347940637 151.0
54.352864493 183.0
54.357788349 194.0
54.362712205 169.0
54.367636061 164.0
54.372559917 144.0
54.377483773 139.0
54.382407629 158.0
54.387331485 172.0
54.392255341 179.0
54.397179197 166.0
54.402103053 166.0
54.407026909 153.0
54.411950765 169.0
54.416874621 157.0
54.421798477 153.0
54.426722333 145.0
54.431646189 149.0
54.436570045 144.0
54.441493901 178.0
54.446417757 156.0
54.451341613 156.0
54.456265469 145.0
54.461189325 149.0
54.466113181 159.0
54.471037037 152.0
54.475960893 161.0
54.480884749 163.0
54.485808605 161.0
54.490732461 160.0
54.495656317 167.0
54.500580173 128.0
54.505504029 151.0
54.510427885 158.0
54.515351741 161.0
54.520275597 152.0
54.525199453 171.0
54.530123309 149.0
54.535047165 175.0
54.539971021 163.0
54.544894877 156.0
54.549818733 145.0
54.554742589 170.0
54.559666445 139.0
54.564590301 138.0
54.569514157 161.0
54.574438013 144.0
54.579361869 148.0
54.584285725 170.0
54.589209581 164.0
54.594133437 154.0
54.599057293 168.0
54.603981149 169.0
54.608905005 186.0
54.613828861 138.0
54.618752717 151.0
54.623676573 159.0
54.628600429 137.0
54.633524285 169.0
54.638448141 171.0
54.643371997 135.0
54.648295853 146.0
54.653219709 146.0
54.658143565 151.0
54.663067421 160.0
54.667991277 151.0
54.672915133 150.0
54.677838989 160.0
54.682762845 151.0
54.687686701 171.0
54.692610557 125.0
54.697534413 156.0
54.702458269 161.0
54.707382125 153.0
54.712305981 154.0
54.717229837 149.0
54.722153693 142.0
54.727077549 170.0
54.732001405 158.0
54.736925261 152.0
54.741849117 148.0
54.746772973 147.0
54.751696830 156.0
54.756620686 149.0
54.761544542 163.0
54.766468398 159.0
54.771392254 146.0
54.776316110 144.0
54.781239966 150.0
54.786163822 152.0
54.791087678 136.0
54.796011534 138.0
54.800935390 143.0
54.805859246 153.0
54.810783102 142.0
54.815706958 151.0
54.820630814 149.0
54.825554670 139.0
54.830478526 175.0
54.835402382 141.0
54.840326238 132.0
54.845250094 133.0
54.850173950 124.0
54.855097806 157.0
54.860021662 146.0
54.864945518 155.0
54.869869374 156.0
54.874793230 152.0
54.879717086 142.0
54.884640942 145.0
54.889564798 127.0
54.894488654 162.0
54.899412510 147.0
54.904336366 143.0
54.909260222 156.0
54.914184078 160.0
54.919107934 167.0
54.924031790 128.0
54.928955646 138.0
54.933879502 152.0
54.938803358 147.0
54.943727214 132.0
54.948651070 156.0
54.953574926 151.0
54.958498782 150.0
54.963422638 142.0
54.968346494 133.0
54.973270350 129.0
54.978194206 161.0
54.983118062 114.0
54.988041918 134.0
54.992965774 144.0
54.997889630 133.0
