35.002061930 158.0
35.006985786 144.0
35.011909642 151.0
35.016833498 165.0
35.021757354 146.0
35.026681210 165.0
35.031605066 164.0
35.036528922 171.0
35.041452778 164.0
35.046376634 150.0
35.051300490 153.0
35.056224346 151.0
35.061148202 172.0
35.066072058 159.0
35.070995914 156.0
35.075919770 160.0
35.080843626 155.0
35.085767482 164.0
35.090691338 140.0
35.095615194 172.0
35.100539050 171.0
35.105462906 170.0
35.110386762 167.0
35.115310618 151.0
35.120234474 172.0
35.125158330 186.0
35.130082186 144.0
35.135006042 146.0
35.139929898 149.0
35.144853754 176.0
35.149777610 163.0
35.154701466 139.0
35.159625322 171.0
35.164549178 198.0
35.169473034 178.0
35.174396890 139.0
35.179320746 142.0
35.184244602 181.0
35.189168458 170.0
35.194092314 176.0
35.199016170 164.0
35.203940026 161.0
35.208863882 160.0
35.213787738 168.0
35.218711594 156.0
35.223635450 158.0
35.228559306 148.0
35.233483162 149.0
35.238407018 163.0
35.243330874 188.0
35.248254730 162.0
35.253178587 157.0
35.258102443 165.0
35.263026299 154.0
35.267950155 158.0
35.272874011 173.0
35.277797867 171.0
35.282721723 177.0
35.287645579 146.0
35.292569435 175.0
35.297493291 173.0
35.302417147 167.0
35.307341003 163.0
35.312264859 134.0
35.317188715 155.0
35.322112571 159.0
35.327036427 151.0
35.331960283 161.0
35.336884139 158.0
35.341807995 162.0
35.346731851 172.0
35.351655707 158.0
35.356579563 165.0
35.361503419 190.0
35.366427275 155.0
35.371351131 150.0
35.376274987 145.0
35.381198843 140.0
35.386122699 173.0
35.391046555 146.0
35.395970411 165.0
35.400894267 167.0
35.405818123 166.0
35.410741979 155.0
35.415665835 177.0
35.420589691 147.0
35.425513547 146.0
35.430437403 190.0
35.435361259 143.0
35.440285115 150.0
35.445208971 158.0
35.450132827 161.0
35.455056683 152.0
35.459980539 166.0
35.464904395 143.0
35.469828251 132.0
35.474752107 168.0
35.479675963 152.0
35.484599819 140.0
35.489523675 151.0
35.494447531 174.0
35.499371387 140.0
35.504295243 148.0
35.509219099 149.0
35.514142955 162.0
35.519066811 168.0
35.523990667 145.0
35.528914523 162.0
35.533838379 160.0
35.538762235 186.0
35.543686091 166.0
35.548609947 149.0
35.553533803 167.0
35.558457659 164.0
35.563381515 146.0
35.568305371 138.0
35.573229227 163.0
35.578153083 147.0
35.583076939 162.0
35.588000795 144.0
35.592924651 174.0
35.597848507 161.0
35.602772363 156.0
35.607696219 169.0
35.612620075 146.0
35.617543931 142.0
35.622467787 131.0
35.627391643 167.0
35.632315499 152.0
35.637239355 152.0
35.642163211 139.0
35.647087067 136.0
35.652010923 155.0
35.656934779 151.0
35.661858635 189.0
35.666782491 142.0
35.671706347 155.0
35.676630203 154.0
35.681554059 157.0
35.686477915 157.0
35.691401771 175.0
35.696325627 165.0
35.701249483 169.0
35.706173339 158.0
35.711097195 151.0
35.716021051 169.0
35.720944907 150.0
35.725868763 148.0
35.730792619 153.0
35.735716475 183.0
35.740640331 177.0
35.745564187 153.0
35.750488043 153.0
35.755411900 154.0
35.760335756 136.0
35.765259612 147.0
35.770183468 160.0
35.775107324 169.0
35.780031180 152.0
35.784955036 159.0
35.789878892 159.0
35.794802748 165.0
35.799726604 142.0
35.804650460 159.0
35.809574316 164.0
35.814498172 154.0
35.819422028 136.0
35.824345884 165.0
35.829269740 162.0
35.834193596 129.0
35.839117452 147.0
35.844041308 162.0
35.848965164 139.0
35.853889020 195.0
35.858812876 162.0
35.863736732 140.0
35.868660588 148.0
35.873584444 153.0
35.878508300 160.0
35.883432156 165.0
35.888356012 145.0
35.893279868 143.0
35.898203724 184.0
35.903127580 176.0
35.908051436 158.0
35.912975292 138.0
35.917899148 147.0
35.922823004 151.0
35.927746860 152.0
35.932670716 157.0
35.937594572 155.0
35.942518428 166.0
35.947442284 146.0
35.952366140 160.0
35.957289996 153.0
35.962213852 146.0
35.967137708 150.0
35.972061564 135.0
35.976985420 158.0
35.981909276 155.0
35.986833132 152.0
35.991756988 158.0
35.996680844 156.0
36.001604700 135.0
36.006528556 151.0
36.011452412 171.0
36.016376268 141.0
36.021300124 156.0
36.026223980 163.0
36.031147836 157.0
36.036071692 154.0
36.040995548 144.0
36.045919404 166.0
36.050843260 146.0
36.055767116 152.0
36.060690972 147.0
36.065614828 169.0
36.070538684 160.0
36.075462540 156.0
36.080386396 168.0
36.085310252 152.0
36.090234108 168.0
36.095157964 176.0
36.100081820 154.0
36.105005676 154.0
36.109929532 141.0
36.114853388 159.0
36.119777244 161.0
36.124701100 134.0
36.129624956 141.0
36.134548812 136.0
36.139472668 135.0
36.144396524 150.0
36.149320380 144.0
36.154244236 129.0
36.159168092 137.0
36.164091948 161.0
36.169015804 171.0
36.173939660 149.0
36.178863516 165.0
36.183787372 173.0
36.188711228 167.0
36.193635084 146.0
36.198558940 138.0
36.203482796 172.0
36.208406652 141.0
36.213330508 150.0
36.218254364 166.0
36.223178220 142.0
36.228102076 145.0
36.233025932 160.0
36.237949788 152.0
36.242873644 144.0
36.247797500 158.0
36.252721357 157.0
36.257645213 152.0
36.262569069 152.0
36.267492925 141.0
36.272416781 159.0
36.277340637 182.0
36.282264493 157.0
36.287188349 138.0
36.292112205 146.0
36.297036061 152.0
36.301959917 150.0
36.306883773 150.0
36.311807629 144.0
36.316731485 161.0
36.321655341 170.0
36.326579197 145.0
36.331503053 146.0
36.336426909 149.0
36.341350765 149.0
36.346274621 161.0
36.351198477 147.0
36.356122333 183.0
36.361046189 129.0
36.365970045 158.0
36.370893901 162.0
36.375817757 159.0
36.380741613 142.0
36.385665469 168.0
36.390589325 141.0
36.395513181 152.0
36.400437037 124.0
36.405360893 158.0
36.410284749 141.0
36.415208605 156.0
36.420132461 156.0
36.425056317 155.0
36.429980173 166.0
36.434904029 153.0
36.439827885 149.0
36.444751741 135.0
36.449675597 164.0
36.454599453 158.0
36.459523309 130.0
36.464447165 156.0
36.469371021 136.0
36.474294877 135.0
36.479218733 173.0
36.484142589 171.0
36.489066445 146.0
36.493990301 168.0
36.498914157 177.0
36.503838013 127.0
36.508761869 160.0
36.513685725 150.0
36.518609581 173.0
36.523533437 130.0
36.528457293 176.0
36.533381149 152.0
36.538305005 139.0
36.543228861 138.0
36.548152717 172.0
36.553076573 148.0
36.558000429 150.0
36.562924285 165.0
36.567848141 167.0
36.572771997 148.0
36.577695853 147.0
36.582619709 143.0
36.587543565 163.0
36.592467421 139.0
36.597391277 140.0
36.602315133 158.0
36.607238989 166.0
36.612162845 149.0
36.617086701 158.0
36.622010557 168.0
36.626934413 139.0
36.631858269 181.0
36.636782125 155.0
36.641705981 131.0
36.646629837 143.0
36.651553693 157.0
36.656477549 169.0
36.661401405 166.0
36.666325261 167.0
36.671249117 185.0
36.676172973 135.0
36.681096829 140.0
36.686020685 138.0
36.690944541 144.0
36.695868397 153.0
36.700792253 157.0
36.705716109 151.0
36.710639965 151.0
36.715563821 141.0
36.720487677 134.0
36.725411533 138.0
36.730335389 153.0
36.735259245 167.0
36.740183101 145.0
36.745106957 169.0
36.750030813 147.0
36.754954670 166.0
36.759878526 156.0
36.764802382 140.0
36.769726238 166.0
36.774650094 180.0
36.779573950 134.0
36.784497806 172.0
36.789421662 157.0
36.794345518 152.0
36.799269374 161.0
36.804193230 155.0
36.809117086 149.0
36.814040942 144.0
36.818964798 158.0
36.823888654 153.0
36.828812510 139.0
36.833736366 152.0
36.838660222 159.0
36.843584078 149.0
36.848507934 152.0
36.853431790 157.0
36.858355646 160.0
36.863279502 156.0
36.868203358 141.0
36.873127214 153.0
36.878051070 127.0
36.882974926 148.0
36.887898782 140.0
36.892822638 141.0
36.897746494 165.0
36.902670350 159.0
36.907594206 190.0
36.912518062 157.0
36.917441918 153.0
36.922365774 141.0
36.927289630 150.0
36.932213486 128.0
36.937137342 151.0
36.942061198 155.0
36.946985054 147.0
36.951908910 134.0
36.956832766 168.0
36.961756622 165.0
36.966680478 139.0
36.971604334 143.0
36.976528190 145.0
36.981452046 142.0
36.986375902 162.0
36.991299758 172.0
36.996223614 167.0
37.001147470 177.0
37.006071326 135.0
37.010995182 166.0
37.015919038 142.0
37.020842894 156.0
37.025766750 149.0
37.030690606 175.0
37.035614462 150.0
37.040538318 163.0
37.045462174 161.0
37.050386030 147.0
37.055309886 166.0
37.060233742 146.0
37.065157598 161.0
37.070081454 164.0
37.075005310 155.0
37.079929166 144.0
37.084853022 155.0
37.089776878 163.0
37.094700734 164.0
37.099624590 168.0
37.104548446 150.0
37.109472302 169.0
37.114396158 139.0
37.119320014 171.0
37.124243870 177.0
37.129167726 174.0
37.134091582 158.0
37.139015438 141.0
37.143939294 146.0
37.148863150 152.0
37.153787006 174.0
37.158710862 177.0
37.163634718 144.0
37.168558574 170.0
37.173482430 156.0
37.178406286 153.0
37.183330142 144.0
37.188253998 172.0
37.193177854 170.0
37.198101710 161.0
37.203025566 153.0
37.207949422 181.0
37.212873278 146.0
37.217797134 165.0
37.222720990 144.0
37.227644846 150.0
37.232568702 133.0
37.237492558 146.0
37.242416414 179.0
37.247340270 186.0
37.252264127 159.0
37.257187983 175.0
37.262111839 186.0
37.267035695 147.0
37.271959551 146.0
37.276883407 149.0
37.281807263 150.0
37.286731119 147.0
37.291654975 143.0
37.296578831 155.0
37.301502687 140.0
37.306426543 165.0
37.311350399 158.0
37.316274255 150.0
37.321198111 163.0
37.326121967 176.0
37.331045823 151.0
37.335969679 155.0
37.340893535 174.0
37.345817391 153.0
37.350741247 156.0
37.355665103 176.0
37.360588959 162.0
37.365512815 174.0
37.370436671 145.0
37.375360527 196.0
37.380284383 161.0
37.385208239 177.0
37.390132095 186.0
37.395055951 193.0
37.399979807 219.0
37.404903663 181.0
37.409827519 285.0
37.414751375 258.0
37.419675231 307.0
37.424599087 313.0
37.429522943 380.0
37.434446799 405.0
37.439370655 401.0
37.444294511 386.0
37.449218367 416.0
37.454142223 400.0
37.459066079 389.0
37.463989935 405.0
37.468913791 346.0
37.473837647 335.0
37.478761503 273.0
37.483685359 296.0
37.488609215 226.0
37.493533071 214.0
37.498456927 198.0
37.503380783 191.0
37.508304639 186.0
37.513228495 191.0
37.518152351 154.0
37.523076207 175.0
37.528000063 161.0
37.532923919 192.0
37.537847775 177.0
37.542771631 163.0
37.547695487 180.0
37.552619343 164.0
37.557543199 173.0
37.562467055 193.0
37.567390911 156.0
37.572314767 184.0
37.577238623 152.0
37.582162479 155.0
37.587086335 170.0
37.592010191 171.0
37.596934047 149.0
37.601857903 161.0
37.606781759 165.0
37.611705615 159.0
37.616629471 173.0
37.621553327 155.0
37.626477183 181.0
37.631401039 164.0
37.636324895 173.0
37.641248751 192.0
37.646172607 170.0
37.651096463 180.0
37.656020319 150.0
37.660944175 157.0
37.665868031 149.0
37.670791887 196.0
37.675715743 156.0
37.680639599 178.0
37.685563455 152.0
37.690487311 176.0
37.695411167 174.0
37.700335023 187.0
37.705258879 173.0
37.710182735 177.0
37.715106591 167.0
37.720030447 170.0
37.724954303 146.0
37.729878159 183.0
37.734802015 132.0
37.739725871 169.0
37.744649727 183.0
37.749573583 169.0
37.754497440 152.0
37.759421296 158.0
37.764345152 184.0
37.769269008 160.0
37.774192864 164.0
37.779116720 175.0
37.784040576 143.0
37.788964432 148.0
37.793888288 170.0
37.798812144 156.0
37.803736000 147.0
37.808659856 166.0
37.813583712 165.0
37.818507568 172.0
37.823431424 204.0
37.828355280 164.0
37.833279136 173.0
37.838202992 159.0
37.843126848 179.0
37.848050704 138.0
37.852974560 151.0
37.857898416 178.0
37.862822272 166.0
37.867746128 163.0
37.872669984 178.0
37.877593840 187.0
37.882517696 166.0
37.887441552 152.0
37.892365408 149.0
37.897289264 169.0
37.902213120 155.0
37.907136976 156.0
37.912060832 141.0
37.916984688 180.0
37.921908544 179.0
37.926832400 156.0
37.931756256 191.0
37.936680112 180.0
37.941603968 165.0
37.946527824 205.0
37.951451680 163.0
37.956375536 175.0
37.961299392 169.0
37.966223248 178.0
37.971147104 177.0
37.976070960 154.0
37.980994816 183.0
37.985918672 193.0
37.990842528 194.0
37.995766384 217.0
38.000690240 171.0
38.005614096 178.0
38.010537952 165.0
38.015461808 174.0
38.020385664 171.0
38.025309520 163.0
38.030233376 173.0
38.035157232 168.0
38.040081088 158.0
38.045004944 184.0
38.049928800 196.0
38.054852656 173.0
38.059776512 191.0
38.064700368 178.0
38.069624224 181.0
38.074548080 197.0
38.079471936 185.0
38.084395792 156.0
38.089319648 167.0
38.094243504 148.0
38.099167360 188.0
38.104091216 194.0
38.109015072 173.0
38.113938928 168.0
38.118862784 176.0
38.123786640 190.0
38.128710496 192.0
38.133634352 176.0
38.138558208 183.0
38.143482064 191.0
38.148405920 167.0
38.153329776 200.0
38.158253632 193.0
38.163177488 202.0
38.168101344 164.0
38.173025200 159.0
38.177949056 168.0
38.182872912 182.0
38.187796768 174.0
38.192720624 201.0
38.197644480 168.0
38.202568336 176.0
38.207492192 187.0
38.212416048 180.0
38.217339904 187.0
38.222263760 185.0
38.227187616 209.0
38.232111472 196.0
38.237035328 189.0
38.241959184 188.0
38.246883040 201.0
38.251806897 219.0
38.256730753 201.0
38.261654609 193.0
38.266578465 201.0
38.271502321 207.0
38.276426177 226.0
38.281350033 219.0
38.286273889 201.0
38.291197745 234.0
38.296121601 192.0
38.301045457 211.0
38.305969313 209.0
38.310893169 208.0
38.315817025 225.0
38.320740881 198.0
38.325664737 256.0
38.330588593 215.0
38.335512449 207.0
38.340436305 199.0
38.345360161 201.0
38.350284017 217.0
38.355207873 195.0
38.360131729 191.0
38.365055585 210.0
38.369979441 222.0
38.374903297 189.0
38.379827153 214.0
38.384751009 194.0
38.389674865 230.0
38.394598721 192.0
38.399522577 205.0
38.404446433 215.0
38.409370289 209.0
38.414294145 228.0
38.419218001 215.0
38.424141857 236.0
38.429065713 199.0
38.433989569 237.0
38.438913425 215.0
38.443837281 210.0
38.448761137 232.0
38.453684993 213.0
38.458608849 214.0
38.463532705 219.0
38.468456561 232.0
38.473380417 208.0
38.478304273 235.0
38.483228129 210.0
38.488151985 265.0
38.493075841 272.0
38.497999697 273.0
38.502923553 237.0
38.507847409 226.0
38.512771265 223.0
38.517695121 229.0
38.522618977 292.0
38.527542833 272.0
38.532466689 275.0
38.537390545 288.0
38.542314401 279.0
38.547238257 263.0
38.552162113 304.0
38.557085969 308.0
38.562009825 313.0
38.566933681 327.0
38.571857537 273.0
38.576781393 337.0
38.581705249 281.0
38.586629105 308.0
38.591552961 305.0
38.596476817 351.0
38.601400673 304.0
38.606324529 314.0
38.611248385 312.0
38.616172241 332.0
38.621096097 332.0
38.626019953 306.0
38.630943809 317.0
38.635867665 352.0
38.640791521 333.0
38.645715377 332.0
38.650639233 355.0
38.655563089 334.0
38.660486945 359.0
38.665410801 337.0
38.670334657 330.0
38.675258513 319.0
38.680182369 344.0
38.685106225 339.0
38.690030081 344.0
38.694953937 327.0
38.699877793 350.0
38.704801649 354.0
38.709725505 374.0
38.714649361 309.0
38.719573217 364.0
38.724497073 352.0
38.729420929 351.0
38.734344785 340.0
38.739268641 350.0
38.744192497 325.0
38.749116353 349.0
38.754040210 380.0
38.758964066 341.0
38.763887922 373.0
38.768811778 397.0
38.773735634 352.0
38.778659490 384.0
38.783583346 364.0
38.788507202 382.0
38.793431058 384.0
38.798354914 391.0
38.803278770 429.0
38.808202626 421.0
38.813126482 390.0
38.818050338 420.0
38.822974194 430.0
38.827898050 431.0
38.832821906 437.0
38.837745762 550.0
38.842669618 500.0
38.847593474 480.0
38.852517330 523.0
38.857441186 494.0
38.862365042 549.0
38.867288898 520.0
38.872212754 555.0
38.877136610 633.0
38.882060466 597.0
38.886984322 619.0
38.891908178 669.0
38.896832034 651.0
38.901755890 662.0
38.906679746 659.0
38.911603602 749.0
38.916527458 696.0
38.921451314 779.0
38.926375170 739.0
38.931299026 751.0
38.936222882 804.0
38.941146738 827.0
38.946070594 813.0
38.950994450 875.0
38.955918306 873.0
38.960842162 872.0
38.965766018 874.0
38.970689874 902.0
38.975613730 917.0
38.980537586 920.0
38.985461442 961.0
38.990385298 964.0
38.995309154 1005.0
39.000233010 1032.0
39.005156866 990.0
39.010080722 1044.0
39.015004578 1044.0
39.019928434 1089.0
39.024852290 1025.0
39.029776146 1070.0
39.034700002 1046.0
39.039623858 1134.0
39.044547714 1091.0
39.049471570 1090.0
39.054395426 1077.0
39.059319282 1063.0
39.064243138 1119.0
39.069166994 1077.0
39.074090850 1069.0
39.079014706 1088.0
39.083938562 1063.0
39.088862418 1084.0
39.093786274 1102.0
39.098710130 1061.0
39.103633986 1062.0
39.108557842 1090.0
39.113481698 1028.0
39.118405554 1030.0
39.123329410 987.0
39.128253266 1047.0
39.133177122 1035.0
39.138100978 1017.0
39.143024834 986.0
39.147948690 994.0
39.152872546 974.0
39.157796402 903.0
39.162720258 967.0
39.167644114 926.0
39.172567970 931.0
39.177491826 942.0
39.182415682 906.0
39.187339538 850.0
39.192263394 914.0
39.197187250 865.0
39.202111106 845.0
39.207034962 831.0
39.211958818 812.0
39.216882674 845.0
39.221806530 722.0
39.226730386 792.0
39.231654242 761.0
39.236578098 737.0
39.241501954 677.0
39.246425810 724.0
39.251349667 709.0
39.256273523 715.0
39.261197379 659.0
39.266121235 672.0
39.271045091 618.0
39.275968947 641.0
39.280892803 608.0
39.285816659 579.0
39.290740515 590.0
39.295664371 596.0
39.300588227 528.0
39.305512083 568.0
39.310435939 535.0
39.315359795 536.0
39.320283651 526.0
39.325207507 489.0
39.330131363 468.0
39.335055219 500.0
39.339979075 513.0
39.344902931 479.0
39.349826787 458.0
39.354750643 461.0
39.359674499 487.0
39.364598355 451.0
39.369522211 425.0
39.374446067 409.0
39.379369923 414.0
39.384293779 372.0
39.389217635 388.0
39.394141491 372.0
39.399065347 362.0
39.403989203 369.0
39.408913059 354.0
39.413836915 377.0
39.418760771 354.0
39.423684627 372.0
39.428608483 336.0
39.433532339 312.0
39.438456195 365.0
39.443380051 309.0
39.448303907 332.0
39.453227763 327.0
39.458151619 291.0
39.463075475 307.0
39.467999331 292.0
39.472923187 311.0
39.477847043 307.0
39.482770899 293.0
39.487694755 275.0
39.492618611 287.0
39.497542467 267.0
39.502466323 242.0
39.507390179 242.0
39.512314035 217.0
39.517237891 275.0
39.522161747 263.0
39.527085603 262.0
39.532009459 226.0
39.536933315 242.0
39.541857171 243.0
39.546781027 269.0
39.551704883 219.0
39.556628739 256.0
39.561552595 230.0
39.566476451 204.0
39.571400307 226.0
39.576324163 212.0
39.581248019 237.0
39.586171875 203.0
39.591095731 232.0
39.596019587 189.0
39.600943443 216.0
39.605867299 213.0
39.610791155 203.0
39.615715011 203.0
39.620638867 223.0
39.625562723 226.0
39.630486579 212.0
39.635410435 210.0
39.640334291 212.0
39.645258147 202.0
39.650182003 209.0
39.655105859 187.0
39.660029715 209.0
39.664953571 197.0
39.669877427 194.0
39.674801283 197.0
39.679725139 173.0
39.684648995 197.0
39.689572851 186.0
39.694496707 207.0
39.699420563 182.0
39.704344419 218.0
39.709268275 199.0
39.714192131 173.0
39.719115987 199.0
39.724039843 215.0
39.728963699 175.0
39.733887555 203.0
39.738811411 184.0
39.743735267 186.0
39.748659123 178.0
39.753582980 193.0
39.758506836 166.0
39.763430692 173.0
39.768354548 173.0
39.773278404 159.0
39.778202260 168.0
39.783126116 201.0
39.788049972 175.0
39.792973828 168.0
39.797897684 194.0
39.802821540 193.0
39.807745396 176.0
39.812669252 188.0
39.817593108 178.0
39.822516964 178.0
39.827440820 173.0
39.832364676 177.0
39.837288532 167.0
39.842212388 184.0
39.847136244 194.0
39.852060100 162.0
39.856983956 177.0
39.861907812 192.0
39.866831668 167.0
39.871755524 160.0
39.876679380 155.0
39.881603236 166.0
39.886527092 161.0
39.891450948 165.0
39.896374804 149.0
39.901298660 172.0
39.906222516 188.0
39.911146372 194.0
39.916070228 167.0
39.920994084 197.0
39.925917940 161.0
39.930841796 161.0
39.935765652 189.0
39.940689508 153.0
39.945613364 170.0
39.950537220 165.0
39.955461076 160.0
39.960384932 175.0
39.965308788 166.0
39.970232644 163.0
39.975156500 190.0
39.980080356 165.0
39.985004212 156.0
39.989928068 143.0
39.994851924 162.0
39.999775780 170.0
40.004699636 163.0
40.009623492 177.0
40.014547348 165.0
40.019471204 172.0
40.024395060 160.0
40.029318916 161.0
40.034242772 182.0
40.039166628 185.0
40.044090484 173.0
40.049014340 160.0
40.053938196 180.0
40.058862052 168.0
40.063785908 131.0
40.068709764 154.0
40.073633620 184.0
40.078557476 187.0
40.083481332 171.0
40.088405188 151.0
40.093329044 175.0
40.098252900 184.0
40.103176756 172.0
40.108100612 167.0
40.113024468 147.0
40.117948324 159.0
40.122872180 147.0
40.127796036 177.0
40.132719892 151.0
40.137643748 158.0
40.142567604 160.0
40.147491460 165.0
40.152415316 150.0
40.157339172 146.0
40.162263028 192.0
40.167186884 148.0
40.172110740 152.0
40.177034596 153.0
40.181958452 139.0
40.186882308 156.0
40.191806164 185.0
40.196730020 181.0
40.201653876 156.0
40.206577732 170.0
40.211501588 164.0
40.216425444 144.0
40.221349300 177.0
40.226273156 172.0
40.231197012 181.0
40.236120868 170.0
40.241044724 170.0
40.245968580 161.0
40.250892437 158.0
40.255816293 183.0
40.260740149 169.0
40.265664005 168.0
40.270587861 148.0
40.275511717 172.0
40.280435573 175.0
40.285359429 174.0
40.290283285 151.0
40.295207141 180.0
40.300130997 168.0
40.305054853 179.0
40.309978709 150.0
40.314902565 149.0
40.319826421 171.0
40.324750277 151.0
40.329674133 172.0
40.334597989 148.0
40.339521845 177.0
40.344445701 158.0
40.349369557 153.0
40.354293413 186.0
40.359217269 153.0
40.364141125 169.0
40.369064981 184.0
40.373988837 162.0
40.378912693 162.0
40.383836549 151.0
40.388760405 154.0
40.393684261 167.0
40.398608117 161.0
40.403531973 167.0
40.408455829 154.0
40.413379685 177.0
40.418303541 177.0
40.423227397 154.0
40.428151253 164.0
40.433075109 159.0
40.437998965 169.0
40.442922821 190.0
40.447846677 169.0
40.452770533 151.0
40.457694389 198.0
40.462618245 160.0
40.467542101 182.0
40.472465957 148.0
40.477389813 182.0
40.482313669 179.0
40.487237525 198.0
40.492161381 189.0
40.497085237 200.0
40.502009093 152.0
40.506932949 189.0
40.511856805 180.0
40.516780661 188.0
40.521704517 167.0
40.526628373 188.0
40.531552229 190.0
40.536476085 172.0
40.541399941 201.0
40.546323797 189.0
40.551247653 180.0
40.556171509 197.0
40.561095365 179.0
40.566019221 202.0
40.570943077 162.0
40.575866933 182.0
40.580790789 182.0
40.585714645 188.0
40.590638501 190.0
40.595562357 198.0
40.600486213 171.0
40.605410069 190.0
40.610333925 172.0
40.615257781 185.0
40.620181637 151.0
40.625105493 199.0
40.630029349 193.0
40.634953205 203.0
40.639877061 198.0
40.644800917 160.0
40.649724773 196.0
40.654648629 186.0
40.659572485 194.0
40.664496341 191.0
40.669420197 168.0
40.674344053 179.0
40.679267909 186.0
40.684191765 186.0
40.689115621 164.0
40.694039477 205.0
40.698963333 173.0
40.703887189 195.0
40.708811045 192.0
40.713734901 195.0
40.718658757 190.0
40.723582613 205.0
40.728506469 199.0
40.733430325 198.0
40.738354181 198.0
40.743278037 196.0
40.748201893 190.0
40.753125750 198.0
40.758049606 202.0
40.762973462 195.0
40.767897318 196.0
40.772821174 187.0
40.777745030 192.0
40.782668886 207.0
40.787592742 202.0
40.792516598 230.0
40.797440454 207.0
40.802364310 209.0
40.807288166 202.0
40.812212022 200.0
40.817135878 205.0
40.822059734 237.0
40.826983590 235.0
40.831907446 190.0
40.836831302 172.0
40.841755158 220.0
40.846679014 195.0
40.851602870 257.0
40.856526726 208.0
40.861450582 221.0
40.866374438 192.0
40.871298294 220.0
40.876222150 206.0
40.881146006 227.0
40.886069862 225.0
40.890993718 216.0
40.895917574 228.0
40.900841430 206.0
40.905765286 211.0
40.910689142 257.0
40.915612998 221.0
40.920536854 226.0
40.925460710 214.0
40.930384566 205.0
40.935308422 224.0
40.940232278 220.0
40.945156134 200.0
40.950079990 201.0
40.955003846 213.0
40.959927702 213.0
40.964851558 214.0
40.969775414 275.0
40.974699270 229.0
40.979623126 217.0
40.984546982 199.0
40.989470838 203.0
40.994394694 224.0
40.999318550 209.0
41.004242406 276.0
41.009166262 230.0
41.014090118 213.0
41.019013974 258.0
41.023937830 228.0
41.028861686 221.0
41.033785542 232.0
41.038709398 258.0
41.043633254 266.0
41.048557110 205.0
41.053480966 218.0
41.058404822 282.0
41.063328678 267.0
41.068252534 218.0
41.073176390 255.0
41.078100246 269.0
41.083024102 276.0
41.087947958 263.0
41.092871814 259.0
41.097795670 230.0
41.102719526 272.0
41.107643382 256.0
41.112567238 257.0
41.117491094 228.0
41.122414950 256.0
41.127338806 281.0
41.132262662 276.0
41.137186518 284.0
41.142110374 276.0
41.147034230 282.0
41.151958086 288.0
41.156881942 256.0
41.161805798 273.0
41.166729654 296.0
41.171653510 283.0
41.176577366 300.0
41.181501222 287.0
41.186425078 327.0
41.191348934 297.0
41.196272790 306.0
41.201196646 319.0
41.206120502 325.0
41.211044358 324.0
41.215968214 296.0
41.220892070 319.0
41.225815926 312.0
41.230739782 280.0
41.235663638 304.0
41.240587494 307.0
41.245511350 334.0
41.250435207 329.0
41.255359063 356.0
41.260282919 326.0
41.265206775 327.0
41.270130631 341.0
41.275054487 357.0
41.279978343 363.0
41.284902199 393.0
41.289826055 345.0
41.294749911 398.0
41.299673767 343.0
41.304597623 357.0
41.309521479 423.0
41.314445335 372.0
41.319369191 361.0
41.324293047 394.0
41.329216903 403.0
41.334140759 392.0
41.339064615 435.0
41.343988471 404.0
41.348912327 434.0
41.353836183 466.0
41.358760039 446.0
41.363683895 512.0
41.368607751 490.0
41.373531607 547.0
41.378455463 571.0
41.383379319 638.0
41.388303175 633.0
41.393227031 661.0
41.398150887 712.0
41.403074743 768.0
41.407998599 800.0
41.412922455 879.0
41.417846311 897.0
41.422770167 935.0
41.427694023 1007.0
41.432617879 994.0
41.437541735 1108.0
41.442465591 1046.0
41.447389447 1139.0
41.452313303 1095.0
41.457237159 1127.0
41.462161015 1061.0
41.467084871 1153.0
41.472008727 1143.0
41.476932583 1043.0
41.481856439 1143.0
41.486780295 1103.0
41.491704151 1142.0
41.496628007 1127.0
41.501551863 1205.0
41.506475719 1187.0
41.511399575 1370.0
41.516323431 1442.0
41.521247287 1476.0
41.526171143 1648.0
41.531094999 1778.0
41.536018855 2025.0
41.540942711 2332.0
41.545866567 2614.0
41.550790423 3074.0
41.555714279 3716.0
41.560638135 4520.0
41.565561991 5869.0
41.570485847 7588.0
41.575409703 10025.0
41.580333559 14070.0
41.585257415 19729.0
41.590181271 28619.0
41.595105127 40630.0
41.600028983 52477.0
41.604952839 60767.0
41.609876695 65458.0
41.614800551 68422.0
41.619724407 70545.0
41.624648263 71701.0
41.629572119 70794.0
41.634495975 69806.0
41.639419831 66731.0
41.644343687 60605.0
41.649267543 49962.0
41.654191399 36641.0
41.659115255 24595.0
41.664039111 17124.0
41.668962967 12671.0
41.673886823 10226.0
41.678810679 9250.0
41.683734535 9275.0
41.688658391 10319.0
41.693582247 12740.0
41.698506103 16728.0
41.703429959 21869.0
41.708353815 27060.0
41.713277671 30597.0
41.718201527 33557.0
41.723125383 35065.0
41.728049239 35933.0
41.732973095 36286.0
41.737896951 35855.0
41.742820807 34445.0
41.747744663 32958.0
41.752668520 29650.0
41.757592376 25142.0
41.762516232 18546.0
41.767440088 13255.0
41.772363944 8936.0
41.777287800 6410.0
41.782211656 4582.0
41.787135512 3677.0
41.792059368 2868.0
41.796983224 2411.0
41.801907080 2082.0
41.806830936 1810.0
41.811754792 1682.0
41.816678648 1518.0
41.821602504 1384.0
41.826526360 1283.0
41.831450216 1197.0
41.836374072 1144.0
41.841297928 1027.0
41.846221784 988.0
41.851145640 910.0
41.856069496 906.0
41.860993352 878.0
41.865917208 815.0
41.870841064 778.0
41.875764920 733.0
41.880688776 691.0
41.885612632 726.0
41.890536488 659.0
41.895460344 669.0
41.900384200 575.0
41.905308056 617.0
41.910231912 595.0
41.915155768 582.0
41.920079624 564.0
41.925003480 582.0
41.929927336 531.0
41.934851192 528.0
41.939775048 504.0
41.944698904 490.0
41.949622760 431.0
41.954546616 473.0
41.959470472 434.0
41.964394328 446.0
41.969318184 502.0
41.974242040 411.0
41.979165896 485.0
41.984089752 404.0
41.989013608 412.0
41.993937464 420.0
41.998861320 411.0
42.003785176 369.0
42.008709032 394.0
42.013632888 378.0
42.018556744 398.0
42.023480600 370.0
42.028404456 402.0
42.033328312 367.0
42.038252168 325.0
42.043176024 347.0
42.048099880 334.0
42.053023736 356.0
42.057947592 315.0
42.062871448 330.0
42.067795304 326.0
42.072719160 313.0
42.077643016 316.0
42.082566872 323.0
42.087490728 313.0
42.092414584 302.0
42.097338440 299.0
42.102262296 284.0
42.107186152 271.0
42.112110008 276.0
42.117033864 286.0
42.121957720 303.0
42.126881576 287.0
42.131805432 290.0
42.136729288 286.0
42.141653144 226.0
42.146577000 283.0
42.151500856 264.0
42.156424712 224.0
42.161348568 291.0
42.166272424 267.0
42.171196280 266.0
42.176120136 285.0
42.181043992 223.0
42.185967848 274.0
42.190891704 266.0
42.195815560 228.0
42.200739416 258.0
42.205663272 260.0
42.210587128 276.0
42.215510984 212.0
42.220434840 258.0
42.225358696 218.0
42.230282552 231.0
42.235206408 214.0
42.240130264 209.0
42.245054120 229.0
42.249977977 202.0
42.254901833 226.0
42.259825689 223.0
42.264749545 219.0
42.269673401 167.0
42.274597257 209.0
42.279521113 224.0
42.284444969 188.0
42.289368825 213.0
42.294292681 216.0
42.299216537 198.0
42.304140393 219.0
42.309064249 201.0
42.313988105 210.0
42.318911961 202.0
42.323835817 207.0
42.328759673 194.0
42.333683529 210.0
42.338607385 193.0
42.343531241 186.0
42.348455097 201.0
42.353378953 205.0
42.358302809 193.0
42.363226665 222.0
42.368150521 192.0
42.373074377 178.0
42.377998233 189.0
42.382922089 200.0
42.387845945 170.0
42.392769801 227.0
42.397693657 197.0
42.402617513 175.0
42.407541369 205.0
42.412465225 197.0
42.417389081 168.0
42.422312937 164.0
42.427236793 193.0
42.432160649 194.0
42.437084505 186.0
42.442008361 177.0
42.446932217 181.0
42.451856073 174.0
42.456779929 176.0
42.461703785 183.0
42.466627641 164.0
42.471551497 167.0
42.476475353 159.0
42.481399209 175.0
42.486323065 188.0
42.491246921 173.0
42.496170777 198.0
42.501094633 199.0
42.506018489 184.0
42.510942345 159.0
42.515866201 168.0
42.520790057 175.0
42.525713913 178.0
42.530637769 165.0
42.535561625 165.0
42.540485481 160.0
42.545409337 170.0
42.550333193 162.0
42.555257049 167.0
42.560180905 162.0
42.565104761 173.0
42.570028617 161.0
42.574952473 188.0
42.579876329 171.0
42.584800185 157.0
42.589724041 186.0
42.594647897 183.0
42.599571753 166.0
42.604495609 172.0
42.609419465 158.0
42.614343321 170.0
42.619267177 164.0
42.624191033 189.0
42.629114889 164.0
42.634038745 166.0
42.638962601 179.0
42.643886457 171.0
42.648810313 164.0
42.653734169 168.0
42.658658025 171.0
42.663581881 162.0
42.668505737 155.0
42.673429593 170.0
42.678353449 160.0
42.683277305 164.0
42.688201161 150.0
42.693125017 171.0
42.698048873 173.0
42.702972729 152.0
42.707896585 155.0
42.712820441 168.0
42.717744297 166.0
42.722668153 156.0
42.727592009 164.0
42.732515865 150.0
42.737439721 184.0
42.742363577 163.0
42.747287433 151.0
42.752211290 159.0
42.757135146 158.0
42.762059002 200.0
42.766982858 185.0
42.771906714 149.0
42.776830570 170.0
42.781754426 163.0
42.786678282 170.0
42.791602138 158.0
42.796525994 175.0
42.801449850 148.0
42.806373706 149.0
42.811297562 161.0
42.816221418 141.0
42.821145274 147.0
42.826069130 167.0
42.830992986 170.0
42.835916842 164.0
42.840840698 150.0
42.845764554 159.0
42.850688410 165.0
42.855612266 168.0
42.860536122 143.0
42.865459978 161.0
42.870383834 162.0
42.875307690 144.0
42.880231546 144.0
42.885155402 166.0
42.890079258 170.0
42.895003114 159.0
42.899926970 170.0
42.904850826 167.0
42.909774682 165.0
42.914698538 141.0
42.919622394 146.0
42.924546250 156.0
42.929470106 168.0
42.934393962 129.0
42.939317818 143.0
42.944241674 136.0
42.949165530 147.0
42.954089386 155.0
42.959013242 176.0
42.963937098 166.0
42.968860954 160.0
42.973784810 140.0
42.978708666 168.0
42.983632522 144.0
42.988556378 150.0
42.993480234 159.0
42.998404090 143.0
43.003327946 153.0
43.008251802 148.0
43.013175658 147.0
43.018099514 145.0
43.023023370 133.0
43.027947226 155.0
43.032871082 128.0
43.037794938 145.0
43.042718794 146.0
43.047642650 161.0
43.052566506 150.0
43.057490362 145.0
43.062414218 166.0
43.067338074 153.0
43.072261930 143.0
43.077185786 165.0
43.082109642 144.0
43.087033498 151.0
43.091957354 120.0
43.096881210 135.0
43.101805066 137.0
43.106728922 166.0
43.111652778 152.0
43.116576634 177.0
43.121500490 155.0
43.126424346 149.0
43.131348202 123.0
43.136272058 175.0
43.141195914 144.0
43.146119770 148.0
43.151043626 155.0
43.155967482 148.0
43.160891338 156.0
43.165815194 157.0
43.170739050 155.0
43.175662906 153.0
43.180586762 140.0
43.185510618 134.0
43.190434474 138.0
43.195358330 140.0
43.200282186 140.0
43.205206042 164.0
43.210129898 166.0
43.215053754 139.0
43.219977610 153.0
43.224901466 134.0
43.229825322 147.0
43.234749178 157.0
43.239673034 145.0
43.244596890 144.0
43.249520747 159.0
43.254444603 153.0
43.259368459 163.0
43.264292315 141.0
43.269216171 160.0
43.274140027 167.0
43.279063883 144.0
43.283987739 176.0
43.288911595 175.0
43.293835451 152.0
43.298759307 145.0
43.303683163 141.0
43.308607019 167.0
43.313530875 148.0
43.318454731 157.0
43.323378587 150.0
43.328302443 149.0
43.333226299 164.0
43.338150155 137.0
43.343074011 172.0
43.347997867 150.0
43.352921723 148.0
43.357845579 147.0
43.362769435 141.0
43.367693291 140.0
43.372617147 150.0
43.377541003 134.0
43.382464859 157.0
43.387388715 163.0
43.392312571 160.0
43.397236427 143.0
43.402160283 153.0
43.407084139 135.0
43.412007995 138.0
43.416931851 161.0
43.421855707 145.0
43.426779563 140.0
43.431703419 154.0
43.436627275 143.0
43.441551131 154.0
43.446474987 150.0
43.451398843 136.0
43.456322699 151.0
43.461246555 170.0
43.466170411 157.0
43.471094267 134.0
43.476018123 134.0
43.480941979 159.0
43.485865835 153.0
43.490789691 146.0
43.495713547 142.0
43.500637403 158.0
43.505561259 145.0
43.510485115 144.0
43.515408971 160.0
43.520332827 144.0
43.525256683 171.0
43.530180539 145.0
43.535104395 139.0
43.540028251 157.0
43.544952107 162.0
43.549875963 162.0
43.554799819 153.0
43.559723675 153.0
43.564647531 184.0
43.569571387 155.0
43.574495243 158.0
43.579419099 136.0
43.584342955 138.0
43.589266811 155.0
43.594190667 154.0
43.599114523 153.0
43.604038379 126.0
43.608962235 145.0
43.613886091 141.0
43.618809947 166.0
43.623733803 149.0
43.628657659 160.0
43.633581515 152.0
43.638505371 136.0
43.643429227 156.0
43.648353083 143.0
43.653276939 160.0
43.658200795 150.0
43.663124651 151.0
43.668048507 166.0
43.672972363 169.0
43.677896219 159.0
43.682820075 154.0
43.687743931 141.0
43.692667787 149.0
43.697591643 165.0
43.702515499 137.0
43.707439355 171.0
43.712363211 173.0
43.717287067 171.0
43.722210923 178.0
43.727134779 164.0
43.732058635 163.0
43.736982491 153.0
43.741906347 159.0
43.746830203 158.0
43.751754060 147.0
43.756677916 153.0
43.761601772 160.0
43.766525628 158.0
43.771449484 152.0
43.776373340 178.0
43.781297196 151.0
43.786221052 158.0
43.791144908 141.0
43.796068764 141.0
43.800992620 163.0
43.805916476 128.0
43.810840332 153.0
43.815764188 149.0
43.820688044 154.0
43.825611900 163.0
43.830535756 156.0
43.835459612 166.0
43.840383468 169.0
43.845307324 161.0
43.850231180 176.0
43.855155036 144.0
43.860078892 176.0
43.865002748 147.0
43.869926604 174.0
43.874850460 139.0
43.879774316 134.0
43.884698172 136.0
43.889622028 170.0
43.894545884 160.0
43.899469740 156.0
43.904393596 174.0
43.909317452 167.0
43.914241308 151.0
43.919165164 171.0
43.924089020 172.0
43.929012876 197.0
43.933936732 162.0
43.938860588 170.0
43.943784444 179.0
43.948708300 171.0
43.953632156 170.0
43.958556012 167.0
43.963479868 178.0
43.968403724 179.0
43.973327580 159.0
43.978251436 163.0
43.983175292 179.0
43.988099148 178.0
43.993023004 162.0
43.997946860 176.0
44.002870716 167.0
44.007794572 192.0
44.012718428 155.0
44.017642284 160.0
44.022566140 171.0
44.027489996 179.0
44.032413852 177.0
44.037337708 160.0
44.042261564 163.0
44.047185420 162.0
44.052109276 158.0
44.057033132 192.0
44.061956988 173.0
44.066880844 172.0
44.071804700 159.0
44.076728556 182.0
44.081652412 162.0
44.086576268 191.0
44.091500124 180.0
44.096423980 196.0
44.101347836 202.0
44.106271692 199.0
44.111195548 196.0
44.116119404 180.0
44.121043260 179.0
44.125967116 175.0
44.130890972 210.0
44.135814828 182.0
44.140738684 201.0
44.145662540 178.0
44.150586396 175.0
44.155510252 181.0
44.160434108 213.0
44.165357964 198.0
44.170281820 236.0
44.175205676 193.0
44.180129532 218.0
44.185053388 200.0
44.189977244 242.0
44.194901100 192.0
44.199824956 210.0
44.204748812 203.0
44.209672668 223.0
44.214596524 212.0
44.219520380 216.0
44.224444236 215.0
44.229368092 259.0
44.234291948 225.0
44.239215804 237.0
44.244139660 232.0
44.249063517 225.0
44.253987373 257.0
44.258911229 244.0
44.263835085 246.0
44.268758941 261.0
44.273682797 246.0
44.278606653 264.0
44.283530509 240.0
44.288454365 241.0
44.293378221 245.0
44.298302077 305.0
44.303225933 233.0
44.308149789 262.0
44.313073645 257.0
44.317997501 262.0
44.322921357 294.0
44.327845213 300.0
44.332769069 287.0
44.337692925 319.0
44.342616781 278.0
44.347540637 305.0
44.352464493 282.0
44.357388349 295.0
44.362312205 282.0
44.367236061 279.0
44.372159917 308.0
44.377083773 316.0
44.382007629 300.0
44.386931485 301.0
44.391855341 293.0
44.396779197 312.0
44.401703053 353.0
44.406626909 325.0
44.411550765 309.0
44.416474621 359.0
44.421398477 317.0
44.426322333 309.0
44.431246189 316.0
44.436170045 315.0
44.441093901 298.0
44.446017757 329.0
44.450941613 327.0
44.455865469 319.0
44.460789325 335.0
44.465713181 295.0
44.470637037 306.0
44.475560893 303.0
44.480484749 299.0
44.485408605 301.0
44.490332461 289.0
44.495256317 314.0
44.500180173 275.0
44.505104029 288.0
44.510027885 302.0
44.514951741 300.0
44.519875597 276.0
44.524799453 241.0
44.529723309 277.0
44.534647165 255.0
44.539571021 292.0
44.544494877 265.0
44.549418733 236.0
44.554342589 241.0
44.559266445 258.0
44.564190301 237.0
44.569114157 238.0
44.574038013 263.0
44.578961869 238.0
44.583885725 236.0
44.588809581 239.0
44.593733437 270.0
44.598657293 232.0
44.603581149 225.0
44.608505005 225.0
44.613428861 231.0
44.618352717 216.0
44.623276573 212.0
44.628200429 206.0
44.633124285 218.0
44.638048141 201.0
44.642971997 210.0
44.647895853 223.0
44.652819709 180.0
44.657743565 213.0
44.662667421 189.0
44.667591277 201.0
44.672515133 185.0
44.677438989 180.0
44.682362845 187.0
44.687286701 186.0
44.692210557 158.0
44.697134413 199.0
44.702058269 182.0
44.706982125 161.0
44.711905981 183.0
44.716829837 181.0
44.721753693 183.0
44.726677549 175.0
44.731601405 176.0
44.736525261 171.0
44.741449117 155.0
44.746372973 172.0
44.751296830 169.0
44.756220686 158.0
44.761144542 168.0
44.766068398 179.0
44.770992254 165.0
44.775916110 157.0
44.780839966 174.0
44.785763822 189.0
44.790687678 153.0
44.795611534 159.0
44.800535390 160.0
44.805459246 163.0
44.810383102 161.0
44.815306958 148.0
44.820230814 149.0
44.825154670 166.0
44.830078526 171.0
44.835002382 171.0
44.839926238 150.0
44.844850094 169.0
44.849773950 140.0
44.854697806 151.0
44.859621662 169.0
44.864545518 165.0
44.869469374 168.0
44.874393230 167.0
44.879317086 146.0
44.884240942 151.0
44.889164798 144.0
44.894088654 142.0
44.899012510 154.0
44.903936366 141.0
44.908860222 150.0
44.913784078 149.0
44.918707934 163.0
44.923631790 146.0
44.928555646 158.0
44.933479502 155.0
44.938403358 159.0
44.943327214 158.0
44.948251070 148.0
44.953174926 143.0
44.958098782 140.0
44.963022638 143.0
44.967946494 151.0
44.972870350 145.0
44.977794206 136.0
44.982718062 152.0
44.987641918 158.0
44.992565774 151.0
44.997489630 146.0
