35.002061930 70.0
35.006985786 74.0
35.011909642 75.0
35.016833498 65.0
35.021757354 68.0
35.026681210 63.0
35.031605066 65.0
35.036528922 73.0
35.041452778 81.0
35.046376634 74.0
35.051300490 68.0
35.056224346 55.0
35.061148202 52.0
35.066072058 71.0
35.070995914 60.0
35.075919770 66.0
35.080843626 64.0
35.085767482 78.0
35.090691338 51.0
35.095615194 48.0
35.100539050 59.0
35.105462906 54.0
35.110386762 68.0
35.115310618 57.0
35.120234474 64.0
35.125158330 71.0
35.130082186 62.0
35.135006042 66.0
35.139929898 63.0
35.144853754 65.0
35.149777610 70.0
35.154701466 53.0
35.159625322 64.0
35.164549178 74.0
35.169473034 52.0
35.174396890 58.0
35.179320746 58.0
35.184244602 63.0
35.189168458 62.0
35.194092314 76.0
35.199016170 68.0
35.203940026 69.0
35.208863882 72.0
35.213787738 65.0
35.218711594 55.0
35.223635450 66.0
35.228559306 59.0
35.233483162 68.0
35.238407018 58.0
35.243330874 76.0
35.248254730 66.0
35.253178587 59.0
35.258102443 67.0
35.263026299 76.0
35.267950155 69.0
35.272874011 63.0
35.277797867 63.0
35.282721723 69.0
35.287645579 71.0
35.292569435 65.0
35.297493291 73.0
35.302417147 66.0
35.307341003 55.0
35.312264859 59.0
35.317188715 66.0
35.322112571 81.0
35.327036427 79.0
35.331960283 70.0
35.336884139 84.0
35.341807995 71.0
35.346731851 66.0
35.351655707 73.0
35.356579563 80.0
35.361503419 88.0
35.366427275 88.0
35.371351131 72.0
35.376274987 73.0
35.381198843 79.0
35.386122699 63.0
35.391046555 69.0
35.395970411 68.0
35.400894267 79.0
35.405818123 77.0
35.410741979 88.0
35.415665835 62.0
35.420589691 67.0
35.425513547 65.0
35.430437403 52.0
35.435361259 61.0
35.440285115 79.0
35.445208971 58.0
35.450132827 53.0
35.455056683 66.0
35.459980539 64.0
35.464904395 72.0
35.469828251 66.0
35.474752107 65.0
35.479675963 60.0
35.484599819 72.0
35.489523675 72.0
35.494447531 63.0
35.499371387 76.0
35.504295243 59.0
35.509219099 67.0
35.514142955 63.0
35.519066811 65.0
35.523990667 77.0
35.528914523 64.0
35.533838379 78.0
35.538762235 64.0
35.543686091 48.0
35.548609947 78.0
35.553533803 58.0
35.558457659 63.0
35.563381515 68.0
35.568305371 73.0
35.573229227 61.0
35.578153083 66.0
35.583076939 77.0
35.588000795 65.0
35.592924651 73.0
35.597848507 63.0
35.602772363 72.0
35.607696219 63.0
35.612620075 60.0
35.617543931 60.0
35.622467787 51.0
35.627391643 57.0
35.632315499 67.0
35.637239355 66.0
35.642163211 71.0
35.647087067 62.0
35.652010923 63.0
35.656934779 69.0
35.661858635 63.0
35.666782491 57.0
35.671706347 51.0
35.676630203 72.0
35.681554059 66.0
35.686477915 62.0
35.691401771 70.0
35.696325627 56.0
35.701249483 61.0
35.706173339 56.0
35.711097195 68.0
35.716021051 66.0
35.720944907 59.0
35.725868763 70.0
35.730792619 67.0
35.735716475 46.0
35.740640331 83.0
35.745564187 72.0
35.750488043 56.0
35.755411900 71.0
35.760335756 60.0
35.765259612 63.0
35.770183468 63.0
35.775107324 74.0
35.780031180 67.0
35.784955036 64.0
35.789878892 61.0
35.794802748 55.0
35.799726604 65.0
35.804650460 42.0
35.809574316 55.0
35.814498172 67.0
35.819422028 47.0
35.824345884 60.0
35.829269740 67.0
35.834193596 72.0
35.839117452 62.0
35.844041308 57.0
35.848965164 75.0
35.853889020 62.0
35.858812876 60.0
35.863736732 65.0
35.868660588 63.0
35.873584444 74.0
35.878508300 72.0
35.883432156 71.0
35.888356012 72.0
35.893279868 73.0
35.898203724 67.0
35.903127580 51.0
35.908051436 66.0
35.912975292 62.0
35.917899148 67.0
35.922823004 48.0
35.927746860 64.0
35.932670716 51.0
35.937594572 60.0
35.942518428 69.0
35.947442284 58.0
35.952366140 53.0
35.957289996 60.0
35.962213852 67.0
35.967137708 68.0
35.972061564 62.0
35.976985420 80.0
35.981909276 62.0
35.986833132 71.0
35.991756988 81.0
35.996680844 65.0
36.001604700 49.0
36.006528556 51.0
36.011452412 66.0
36.016376268 79.0
36.021300124 72.0
36.026223980 55.0
36.031147836 70.0
36.036071692 61.0
36.040995548 60.0
36.045919404 57.0
36.050843260 52.0
36.055767116 75.0
36.060690972 78.0
36.065614828 66.0
36.070538684 69.0
36.075462540 65.0
36.080386396 54.0
36.085310252 52.0
36.090234108 62.0
36.095157964 58.0
36.100081820 61.0
36.105005676 70.0
36.109929532 70.0
36.114853388 73.0
36.119777244 64.0
36.124701100 58.0
36.129624956 60.0
36.134548812 76.0
36.139472668 55.0
36.144396524 72.0
36.149320380 73.0
36.154244236 68.0
36.159168092 57.0
36.164091948 71.0
36.169015804 75.0
36.173939660 60.0
36.178863516 62.0
36.183787372 52.0
36.188711228 64.0
36.193635084 56.0
36.198558940 64.0
36.203482796 60.0
36.208406652 65.0
36.213330508 63.0
36.218254364 54.0
36.223178220 62.0
36.228102076 75.0
36.233025932 63.0
36.237949788 75.0
36.242873644 55.0
36.247797500 71.0
36.252721357 65.0
36.257645213 56.0
36.262569069 69.0
36.267492925 62.0
36.272416781 46.0
36.277340637 58.0
36.282264493 74.0
36.287188349 62.0
36.292112205 50.0
36.297036061 66.0
36.301959917 62.0
36.306883773 78.0
36.311807629 61.0
36.316731485 70.0
36.321655341 60.0
36.326579197 85.0
36.331503053 71.0
36.336426909 63.0
36.341350765 58.0
36.346274621 67.0
36.351198477 43.0
36.356122333 45.0
36.361046189 57.0
36.365970045 51.0
36.370893901 49.0
36.375817757 55.0
36.380741613 66.0
36.385665469 80.0
36.390589325 78.0
36.395513181 60.0
36.400437037 53.0
36.405360893 66.0
36.410284749 60.0
36.415208605 63.0
36.420132461 63.0
36.425056317 64.0
36.429980173 61.0
36.434904029 54.0
36.439827885 49.0
36.444751741 73.0
36.449675597 53.0
36.454599453 53.0
36.459523309 60.0
36.464447165 66.0
36.469371021 66.0
36.474294877 68.0
36.479218733 64.0
36.484142589 69.0
36.489066445 63.0
36.493990301 67.0
36.498914157 70.0
36.503838013 61.0
36.508761869 62.0
36.513685725 59.0
36.518609581 68.0
36.523533437 64.0
36.528457293 62.0
36.533381149 61.0
36.538305005 46.0
36.543228861 55.0
36.548152717 75.0
36.553076573 56.0
36.558000429 58.0
36.562924285 72.0
36.567848141 62.0
36.572771997 65.0
36.577695853 50.0
36.582619709 67.0
36.587543565 47.0
36.592467421 62.0
36.597391277 70.0
36.602315133 54.0
36.607238989 63.0
36.612162845 68.0
36.617086701 57.0
36.622010557 52.0
36.626934413 57.0
36.631858269 65.0
36.636782125 57.0
36.641705981 71.0
36.646629837 64.0
36.651553693 71.0
36.656477549 63.0
36.661401405 67.0
36.666325261 64.0
36.671249117 52.0
36.676172973 52.0
36.681096829 61.0
36.686020685 66.0
36.690944541 81.0
36.695868397 75.0
36.700792253 68.0
36.705716109 62.0
36.710639965 76.0
36.715563821 63.0
36.720487677 69.0
36.725411533 66.0
36.730335389 53.0
36.735259245 70.0
36.740183101 66.0
36.745106957 60.0
36.750030813 63.0
36.754954670 69.0
36.759878526 66.0
36.764802382 56.0
36.769726238 67.0
36.774650094 54.0
36.779573950 61.0
36.784497806 55.0
36.789421662 71.0
36.794345518 60.0
36.799269374 72.0
36.804193230 67.0
36.809117086 68.0
36.814040942 73.0
36.818964798 79.0
36.823888654 61.0
36.828812510 56.0
36.833736366 66.0
36.838660222 69.0
36.843584078 67.0
36.848507934 58.0
36.853431790 65.0
36.858355646 68.0
36.863279502 61.0
36.868203358 59.0
36.873127214 60.0
36.878051070 59.0
36.882974926 69.0
36.887898782 59.0
36.892822638 56.0
36.897746494 51.0
36.902670350 58.0
36.907594206 72.0
36.912518062 74.0
36.917441918 65.0
36.922365774 68.0
36.927289630 61.0
36.932213486 70.0
36.937137342 66.0
36.942061198 69.0
36.946985054 73.0
36.951908910 64.0
36.956832766 56.0
36.961756622 63.0
36.966680478 75.0
36.971604334 61.0
36.976528190 67.0
36.981452046 71.0
36.986375902 77.0
36.991299758 65.0
36.996223614 49.0
37.001147470 66.0
37.006071326 80.0
37.010995182 75.0
37.015919038 72.0
37.020842894 55.0
37.025766750 70.0
37.030690606 65.0
37.035614462 69.0
37.040538318 60.0
37.045462174 74.0
37.050386030 68.0
37.055309886 71.0
37.060233742 59.0
37.065157598 51.0
37.070081454 65.0
37.075005310 69.0
37.079929166 76.0
37.084853022 64.0
37.089776878 70.0
37.094700734 78.0
37.099624590 66.0
37.104548446 60.0
37.109472302 78.0
37.114396158 75.0
37.119320014 73.0
37.124243870 51.0
37.129167726 72.0
37.134091582 67.0
37.139015438 59.0
37.143939294 58.0
37.148863150 52.0
37.153787006 69.0
37.158710862 55.0
37.163634718 69.0
37.168558574 78.0
37.173482430 64.0
37.178406286 62.0
37.183330142 58.0
37.188253998 65.0
37.193177854 72.0
37.198101710 74.0
37.203025566 68.0
37.207949422 63.0
37.212873278 47.0
37.217797134 82.0
37.222720990 66.0
37.227644846 65.0
37.232568702 85.0
37.237492558 78.0
37.242416414 69.0
37.247340270 69.0
37.252264127 58.0
37.257187983 57.0
37.262111839 64.0
37.267035695 57.0
37.271959551 70.0
37.276883407 67.0
37.281807263 66.0
37.286731119 87.0
37.291654975 67.0
37.296578831 71.0
37.301502687 64.0
37.306426543 68.0
37.311350399 72.0
37.316274255 62.0
37.321198111 75.0
37.326121967 63.0
37.331045823 73.0
37.335969679 61.0
37.340893535 67.0
37.345817391 57.0
37.350741247 53.0
37.355665103 64.0
37.360588959 71.0
37.365512815 70.0
37.370436671 66.0
37.375360527 78.0
37.380284383 73.0
37.385208239 73.0
37.390132095 73.0
37.395055951 65.0
37.399979807 74.0
37.404903663 75.0
37.409827519 113.0
37.414751375 112.0
37.419675231 106.0
37.424599087 142.0
37.429522943 149.0
37.434446799 185.0
37.439370655 206.0
37.444294511 197.0
37.449218367 185.0
37.454142223 188.0
37.459066079 180.0
37.463989935 133.0
37.468913791 111.0
37.473837647 112.0
37.478761503 114.0
37.483685359 94.0
37.488609215 82.0
37.493533071 90.0
37.498456927 81.0
37.503380783 93.0
37.508304639 82.0
37.513228495 95.0
37.518152351 77.0
37.523076207 86.0
37.528000063 82.0
37.532923919 72.0
37.537847775 75.0
37.542771631 86.0
37.547695487 84.0
37.552619343 82.0
37.557543199 88.0
37.562467055 85.0
37.567390911 89.0
37.572314767 65.0
37.577238623 69.0
37.582162479 63.0
37.587086335 58.0
37.592010191 63.0
37.596934047 67.0
37.601857903 71.0
37.606781759 77.0
37.611705615 73.0
37.616629471 70.0
37.621553327 72.0
37.626477183 67.0
37.631401039 80.0
37.636324895 79.0
37.641248751 69.0
37.646172607 81.0
37.651096463 66.0
37.656020319 60.0
37.660944175 68.0
37.665868031 68.0
37.670791887 87.0
37.675715743 86.0
37.680639599 71.0
37.685563455 68.0
37.690487311 70.0
37.695411167 81.0
37.700335023 61.0
37.705258879 76.0
37.710182735 56.0
37.715106591 62.0
37.720030447 66.0
37.724954303 67.0
37.729878159 73.0
37.734802015 62.0
37.739725871 62.0
37.744649727 92.0
37.749573583 74.0
37.754497440 72.0
37.759421296 70.0
37.764345152 60.0
37.769269008 71.0
37.774192864 78.0
37.779116720 74.0
37.784040576 71.0
37.788964432 76.0
37.793888288 71.0
37.798812144 96.0
37.803736000 69.0
37.808659856 66.0
37.813583712 78.0
37.818507568 59.0
37.823431424 61.0
37.828355280 72.0
37.833279136 71.0
37.838202992 74.0
37.843126848 88.0
37.848050704 72.0
37.852974560 69.0
37.857898416 66.0
37.862822272 75.0
37.867746128 71.0
37.872669984 71.0
37.877593840 79.0
37.882517696 63.0
37.887441552 68.0
37.892365408 85.0
37.897289264 78.0
37.902213120 85.0
37.907136976 75.0
37.912060832 60.0
37.916984688 85.0
37.921908544 89.0
37.926832400 63.0
37.931756256 74.0
37.936680112 70.0
37.941603968 81.0
37.946527824 62.0
37.951451680 85.0
37.956375536 77.0
37.961299392 77.0
37.966223248 69.0
37.971147104 81.0
37.976070960 61.0
37.980994816 72.0
37.985918672 79.0
37.990842528 68.0
37.995766384 75.0
38.000690240 59.0
38.005614096 63.0
38.010537952 60.0
38.015461808 79.0
38.020385664 86.0
38.025309520 81.0
38.030233376 77.0
38.035157232 89.0
38.040081088 77.0
38.045004944 65.0
38.049928800 74.0
38.054852656 64.0
38.059776512 66.0
38.064700368 70.0
38.069624224 87.0
38.074548080 78.0
38.079471936 73.0
38.084395792 76.0
38.089319648 67.0
38.094243504 80.0
38.099167360 64.0
38.104091216 84.0
38.109015072 79.0
38.113938928 96.0
38.118862784 69.0
38.123786640 73.0
38.128710496 87.0
38.133634352 93.0
38.138558208 79.0
38.143482064 92.0
38.148405920 67.0
38.153329776 88.0
38.158253632 64.0
38.163177488 85.0
38.168101344 72.0
38.173025200 97.0
38.177949056 84.0
38.182872912 86.0
38.187796768 83.0
38.192720624 76.0
38.197644480 82.0
38.202568336 77.0
38.207492192 74.0
38.212416048 66.0
38.217339904 84.0
38.222263760 75.0
38.227187616 83.0
38.232111472 67.0
38.237035328 81.0
38.241959184 85.0
38.246883040 80.0
38.251806897 82.0
38.256730753 84.0
38.261654609 82.0
38.266578465 95.0
38.271502321 101.0
38.276426177 70.0
38.281350033 88.0
38.286273889 81.0
38.291197745 87.0
38.296121601 82.0
38.301045457 73.0
38.305969313 87.0
38.310893169 88.0
38.315817025 64.0
38.320740881 88.0
38.325664737 79.0
38.330588593 77.0
38.335512449 103.0
38.340436305 90.0
38.345360161 88.0
38.350284017 98.0
38.355207873 80.0
38.360131729 116.0
38.365055585 104.0
38.369979441 105.0
38.374903297 91.0
38.379827153 92.0
38.384751009 94.0
38.389674865 76.0
38.394598721 104.0
38.399522577 82.0
38.404446433 86.0
38.409370289 95.0
38.414294145 75.0
38.419218001 95.0
38.424141857 100.0
38.429065713 107.0
38.433989569 109.0
38.438913425 95.0
38.443837281 95.0
38.448761137 92.0
38.453684993 99.0
38.458608849 96.0
38.463532705 88.0
38.468456561 101.0
38.473380417 107.0
38.478304273 109.0
38.483228129 85.0
38.488151985 102.0
38.493075841 109.0
38.497999697 95.0
38.502923553 100.0
38.507847409 90.0
38.512771265 106.0
38.517695121 127.0
38.522618977 108.0
38.527542833 108.0
38.532466689 94.0
38.537390545 106.0
38.542314401 125.0
38.547238257 107.0
38.552162113 110.0
38.557085969 85.0
38.562009825 109.0
38.566933681 116.0
38.571857537 110.0
38.576781393 115.0
38.581705249 103.0
38.586629105 123.0
38.591552961 106.0
38.596476817 116.0
38.601400673 121.0
38.606324529 117.0
38.611248385 94.0
38.616172241 131.0
38.621096097 136.0
38.626019953 126.0
38.630943809 122.0
38.635867665 110.0
38.640791521 130.0
38.645715377 126.0
38.650639233 126.0
38.655563089 148.0
38.660486945 115.0
38.665410801 130.0
38.670334657 137.0
38.675258513 134.0
38.680182369 139.0
38.685106225 144.0
38.690030081 130.0
38.694953937 154.0
38.699877793 125.0
38.704801649 160.0
38.709725505 146.0
38.714649361 131.0
38.719573217 144.0
38.724497073 152.0
38.729420929 131.0
38.734344785 157.0
38.739268641 194.0
38.744192497 160.0
38.749116353 134.0
38.754040210 157.0
38.758964066 161.0
38.763887922 158.0
38.768811778 182.0
38.773735634 138.0
38.778659490 165.0
38.783583346 156.0
38.788507202 174.0
38.793431058 193.0
38.798354914 165.0
38.803278770 170.0
38.808202626 149.0
38.813126482 188.0
38.818050338 184.0
38.822974194 193.0
38.827898050 175.0
38.832821906 193.0
38.837745762 184.0
38.842669618 188.0
38.847593474 177.0
38.852517330 185.0
38.857441186 216.0
38.862365042 215.0
38.867288898 204.0
38.872212754 230.0
38.877136610 230.0
38.882060466 262.0
38.886984322 260.0
38.891908178 278.0
38.896832034 296.0
38.901755890 221.0
38.906679746 297.0
38.911603602 283.0
38.916527458 218.0
38.921451314 285.0
38.926375170 283.0
38.931299026 303.0
38.936222882 261.0
38.941146738 288.0
38.946070594 315.0
38.950994450 338.0
38.955918306 317.0
38.960842162 337.0
38.965766018 361.0
38.970689874 339.0
38.975613730 353.0
38.980537586 358.0
38.985461442 318.0
38.990385298 351.0
38.995309154 381.0
39.000233010 400.0
39.005156866 422.0
39.010080722 394.0
39.015004578 420.0
39.019928434 421.0
39.024852290 484.0
39.029776146 481.0
39.034700002 478.0
39.039623858 505.0
39.044547714 515.0
39.049471570 490.0
39.054395426 518.0
39.059319282 489.0
39.064243138 561.0
39.069166994 585.0
39.074090850 589.0
39.079014706 609.0
39.083938562 640.0
39.088862418 635.0
39.093786274 688.0
39.098710130 724.0
39.103633986 787.0
39.108557842 805.0
39.113481698 842.0
39.118405554 815.0
39.123329410 801.0
39.128253266 837.0
39.133177122 876.0
39.138100978 937.0
39.143024834 1051.0
39.147948690 1040.0
39.152872546 1037.0
39.157796402 1171.0
39.162720258 1232.0
39.167644114 1346.0
39.172567970 1432.0
39.177491826 1470.0
39.182415682 1586.0
39.187339538 1622.0
39.192263394 1779.0
39.197187250 1758.0
39.202111106 1859.0
39.207034962 1908.0
39.211958818 1988.0
39.216882674 1998.0
39.221806530 2090.0
39.226730386 2217.0
39.231654242 2269.0
39.236578098 2354.0
39.241501954 2655.0
39.246425810 2892.0
39.251349667 3132.0
39.256273523 3328.0
39.261197379 3506.0
39.266121235 3743.0
39.271045091 3970.0
39.275968947 4275.0
39.280892803 4450.0
39.285816659 4360.0
39.290740515 4576.0
39.295664371 4448.0
39.300588227 4409.0
39.305512083 4261.0
39.310435939 4247.0
39.315359795 4214.0
39.320283651 3834.0
39.325207507 3780.0
39.330131363 3676.0
39.335055219 3585.0
39.339979075 3408.0
39.344902931 3491.0
39.349826787 3261.0
39.354750643 3295.0
39.359674499 3119.0
39.364598355 3109.0
39.369522211 3065.0
39.374446067 3052.0
39.379369923 2980.0
39.384293779 2893.0
39.389217635 2825.0
39.394141491 2792.0
39.399065347 2661.0
39.403989203 2588.0
39.408913059 2422.0
39.413836915 2330.0
39.418760771 2190.0
39.423684627 2076.0
39.428608483 1830.0
39.433532339 1823.0
39.438456195 1679.0
39.443380051 1539.0
39.448303907 1465.0
39.453227763 1277.0
39.458151619 1292.0
39.463075475 1115.0
39.467999331 1023.0
39.472923187 985.0
39.477847043 915.0
39.482770899 788.0
39.487694755 769.0
39.492618611 710.0
39.497542467 677.0
39.502466323 649.0
39.507390179 573.0
39.512314035 486.0
39.517237891 496.0
39.522161747 457.0
39.527085603 394.0
39.532009459 381.0
39.536933315 415.0
39.541857171 378.0
39.546781027 352.0
39.551704883 325.0
39.556628739 299.0
39.561552595 300.0
39.566476451 279.0
39.571400307 271.0
39.576324163 267.0
39.581248019 216.0
39.586171875 225.0
39.591095731 194.0
39.596019587 210.0
39.600943443 185.0
39.605867299 179.0
39.610791155 173.0
39.615715011 185.0
39.620638867 166.0
39.625562723 175.0
39.630486579 187.0
39.635410435 185.0
39.640334291 166.0
39.645258147 146.0
39.650182003 142.0
39.655105859 130.0
39.660029715 138.0
39.664953571 133.0
39.669877427 109.0
39.674801283 123.0
39.679725139 124.0
39.684648995 110.0
39.689572851 99.0
39.694496707 119.0
39.699420563 108.0
39.704344419 123.0
39.709268275 119.0
39.714192131 124.0
39.719115987 109.0
39.724039843 108.0
39.728963699 111.0
39.733887555 106.0
39.738811411 99.0
39.743735267 97.0
39.748659123 119.0
39.753582980 93.0
39.758506836 117.0
39.763430692 98.0
39.768354548 93.0
39.773278404 95.0
39.778202260 92.0
39.783126116 101.0
39.788049972 102.0
39.792973828 107.0
39.797897684 98.0
39.802821540 94.0
39.807745396 101.0
39.812669252 112.0
39.817593108 111.0
39.822516964 86.0
39.827440820 92.0
39.832364676 81.0
39.837288532 104.0
39.842212388 85.0
39.847136244 90.0
39.852060100 87.0
39.856983956 108.0
39.861907812 98.0
39.866831668 87.0
39.871755524 91.0
39.876679380 90.0
39.881603236 91.0
39.886527092 83.0
39.891450948 80.0
39.896374804 84.0
39.901298660 80.0
39.906222516 111.0
39.911146372 75.0
39.916070228 89.0
39.920994084 83.0
39.925917940 75.0
39.930841796 89.0
39.935765652 88.0
39.940689508 96.0
39.945613364 96.0
39.950537220 74.0
39.955461076 93.0
39.960384932 92.0
39.965308788 79.0
39.970232644 85.0
39.975156500 74.0
39.980080356 84.0
39.985004212 54.0
39.989928068 59.0
39.994851924 91.0
39.999775780 92.0
40.004699636 68.0
40.009623492 77.0
40.014547348 73.0
40.019471204 89.0
40.024395060 76.0
40.029318916 81.0
40.034242772 97.0
40.039166628 86.0
40.044090484 71.0
40.049014340 88.0
40.053938196 76.0
40.058862052 71.0
40.063785908 88.0
40.068709764 61.0
40.073633620 87.0
40.078557476 77.0
40.083481332 69.0
40.088405188 73.0
40.093329044 71.0
40.098252900 86.0
40.103176756 64.0
40.108100612 75.0
40.113024468 93.0
40.117948324 68.0
40.122872180 82.0
40.127796036 87.0
40.132719892 77.0
40.137643748 76.0
40.142567604 67.0
40.147491460 78.0
40.152415316 72.0
40.157339172 83.0
40.162263028 69.0
40.167186884 65.0
40.172110740 90.0
40.177034596 69.0
40.181958452 66.0
40.186882308 81.0
40.191806164 79.0
40.196730020 90.0
40.201653876 70.0
40.206577732 71.0
40.211501588 85.0
40.216425444 85.0
40.221349300 80.0
40.226273156 83.0
40.231197012 70.0
40.236120868 76.0
40.241044724 66.0
40.245968580 75.0
40.250892437 70.0
40.255816293 82.0
40.260740149 78.0
40.265664005 98.0
40.270587861 64.0
40.275511717 75.0
40.280435573 79.0
40.285359429 74.0
40.290283285 66.0
40.295207141 70.0
40.300130997 79.0
40.305054853 70.0
40.309978709 67.0
40.314902565 77.0
40.319826421 67.0
40.324750277 73.0
40.329674133 77.0
40.334597989 77.0
40.339521845 83.0
40.344445701 81.0
40.349369557 80.0
40.354293413 86.0
40.359217269 73.0
40.364141125 81.0
40.369064981 73.0
40.373988837 89.0
40.378912693 63.0
40.383836549 68.0
40.388760405 99.0
40.393684261 66.0
40.398608117 70.0
40.403531973 64.0
40.408455829 64.0
40.413379685 70.0
40.418303541 69.0
40.423227397 64.0
40.428151253 61.0
40.433075109 73.0
40.437998965 82.0
40.442922821 83.0
40.447846677 52.0
40.452770533 78.0
40.457694389 85.0
40.462618245 78.0
40.467542101 75.0
40.472465957 79.0
40.477389813 77.0
40.482313669 69.0
40.487237525 74.0
40.492161381 81.0
40.497085237 66.0
40.502009093 94.0
40.506932949 66.0
40.511856805 71.0
40.516780661 65.0
40.521704517 94.0
40.526628373 77.0
40.531552229 77.0
40.536476085 89.0
40.541399941 85.0
40.546323797 72.0
40.551247653 80.0
40.556171509 72.0
40.561095365 72.0
40.566019221 68.0
40.570943077 73.0
40.575866933 75.0
40.580790789 93.0
40.585714645 70.0
40.590638501 74.0
40.595562357 83.0
40.600486213 89.0
40.605410069 80.0
40.610333925 96.0
40.615257781 87.0
40.620181637 90.0
40.625105493 66.0
40.630029349 69.0
40.634953205 77.0
40.639877061 71.0
40.644800917 80.0
40.649724773 94.0
40.654648629 69.0
40.659572485 79.0
40.664496341 91.0
40.669420197 87.0
40.674344053 80.0
40.679267909 71.0
40.684191765 75.0
40.689115621 81.0
40.694039477 80.0
40.698963333 73.0
40.703887189 78.0
40.708811045 79.0
40.713734901 83.0
40.718658757 85.0
40.723582613 83.0
40.728506469 88.0
40.733430325 97.0
40.738354181 96.0
40.743278037 77.0
40.748201893 86.0
40.753125750 80.0
40.758049606 96.0
40.762973462 82.0
40.767897318 83.0
40.772821174 89.0
40.777745030 86.0
40.782668886 94.0
40.787592742 95.0
40.792516598 81.0
40.797440454 107.0
40.802364310 91.0
40.807288166 97.0
40.812212022 100.0
40.817135878 101.0
40.822059734 90.0
40.826983590 81.0
40.831907446 99.0
40.836831302 93.0
40.841755158 83.0
40.846679014 82.0
40.851602870 94.0
40.856526726 94.0
40.861450582 95.0
40.866374438 94.0
40.871298294 81.0
40.876222150 110.0
40.881146006 75.0
40.886069862 83.0
40.890993718 98.0
40.895917574 104.0
40.900841430 117.0
40.905765286 101.0
40.910689142 107.0
40.915612998 101.0
40.920536854 92.0
40.925460710 93.0
40.930384566 89.0
40.935308422 89.0
40.940232278 99.0
40.945156134 108.0
40.950079990 106.0
40.955003846 94.0
40.959927702 88.0
40.964851558 90.0
40.969775414 77.0
40.974699270 88.0
40.979623126 90.0
40.984546982 97.0
40.989470838 107.0
40.994394694 90.0
40.999318550 94.0
41.004242406 96.0
41.009166262 101.0
41.014090118 108.0
41.019013974 96.0
41.023937830 99.0
41.028861686 99.0
41.033785542 98.0
41.038709398 118.0
41.043633254 97.0
41.048557110 101.0
41.053480966 106.0
41.058404822 99.0
41.063328678 94.0
41.068252534 88.0
41.073176390 95.0
41.078100246 103.0
41.083024102 74.0
41.087947958 106.0
41.092871814 90.0
41.097795670 115.0
41.102719526 119.0
41.107643382 90.0
41.112567238 105.0
41.117491094 106.0
41.122414950 114.0
41.127338806 97.0
41.132262662 79.0
41.137186518 101.0
41.142110374 108.0
41.147034230 102.0
41.151958086 106.0
41.156881942 97.0
41.161805798 109.0
41.166729654 99.0
41.171653510 123.0
41.176577366 109.0
41.181501222 110.0
41.186425078 139.0
41.191348934 119.0
41.196272790 107.0
41.201196646 95.0
41.206120502 121.0
41.211044358 140.0
41.215968214 106.0
41.220892070 125.0
41.225815926 124.0
41.230739782 108.0
41.235663638 107.0
41.240587494 132.0
41.245511350 117.0
41.250435207 132.0
41.255359063 128.0
41.260282919 128.0
41.265206775 143.0
41.270130631 135.0
41.275054487 132.0
41.279978343 125.0
41.284902199 117.0
41.289826055 118.0
41.294749911 122.0
41.299673767 129.0
41.304597623 129.0
41.309521479 152.0
41.314445335 130.0
41.319369191 130.0
41.324293047 175.0
41.329216903 140.0
41.334140759 158.0
41.339064615 140.0
41.343988471 161.0
41.348912327 171.0
41.353836183 164.0
41.358760039 166.0
41.363683895 169.0
41.368607751 150.0
41.373531607 186.0
41.378455463 189.0
41.383379319 187.0
41.388303175 272.0
41.393227031 213.0
41.398150887 303.0
41.403074743 333.0
41.407998599 328.0
41.412922455 337.0
41.417846311 366.0
41.422770167 379.0
41.427694023 450.0
41.432617879 427.0
41.437541735 430.0
41.442465591 443.0
41.447389447 458.0
41.452313303 436.0
41.457237159 453.0
41.462161015 453.0
41.467084871 451.0
41.472008727 449.0
41.476932583 447.0
41.481856439 445.0
41.486780295 423.0
41.491704151 419.0
41.496628007 445.0
41.501551863 467.0
41.506475719 522.0
41.511399575 500.0
41.516323431 537.0
41.521247287 593.0
41.526171143 653.0
41.531094999 671.0
41.536018855 768.0
41.540942711 835.0
41.545866567 966.0
41.550790423 1121.0
41.555714279 1304.0
41.560638135 1452.0
41.565561991 1813.0
41.570485847 2132.0
41.575409703 2710.0
41.580333559 3505.0
41.585257415 4928.0
41.590181271 7160.0
41.595105127 11533.0
41.600028983 18791.0
41.604952839 28824.0
41.609876695 37894.0
41.614800551 42635.0
41.619724407 44112.0
41.624648263 42413.0
41.629572119 37140.0
41.634495975 28136.0
41.639419831 19231.0
41.644343687 12307.0
41.649267543 8253.0
41.654191399 5651.0
41.659115255 4323.0
41.664039111 3366.0
41.668962967 2767.0
41.673886823 2554.0
41.678810679 2419.0
41.683734535 2449.0
41.688658391 2801.0
41.693582247 3400.0
41.698506103 4681.0
41.703429959 6651.0
41.708353815 9991.0
41.713277671 14156.0
41.718201527 18403.0
41.723125383 20872.0
41.728049239 21574.0
41.732973095 20758.0
41.737896951 18322.0
41.742820807 14375.0
41.747744663 10170.0
41.752668520 6986.0
41.757592376 4647.0
41.762516232 3118.0
41.767440088 2355.0
41.772363944 1818.0
41.777287800 1407.0
41.782211656 1196.0
41.787135512 962.0
41.792059368 846.0
41.796983224 775.0
41.801907080 673.0
41.806830936 627.0
41.811754792 570.0
41.816678648 534.0
41.821602504 487.0
41.826526360 473.0
41.831450216 465.0
41.836374072 409.0
41.841297928 376.0
41.846221784 345.0
41.851145640 342.0
41.856069496 318.0
41.860993352 308.0
41.865917208 297.0
41.870841064 334.0
41.875764920 278.0
41.880688776 306.0
41.885612632 271.0
41.890536488 261.0
41.895460344 218.0
41.900384200 270.0
41.905308056 260.0
41.910231912 192.0
41.915155768 192.0
41.920079624 192.0
41.925003480 201.0
41.929927336 160.0
41.934851192 166.0
41.939775048 167.0
41.944698904 158.0
41.949622760 186.0
41.954546616 171.0
41.959470472 158.0
41.964394328 143.0
41.969318184 172.0
41.974242040 134.0
41.979165896 147.0
41.984089752 149.0
41.989013608 148.0
41.993937464 158.0
41.998861320 151.0
42.003785176 130.0
42.008709032 145.0
42.013632888 139.0
42.018556744 165.0
42.023480600 148.0
42.028404456 146.0
42.033328312 119.0
42.038252168 119.0
42.043176024 111.0
42.048099880 126.0
42.053023736 132.0
42.057947592 121.0
42.062871448 112.0
42.067795304 109.0
42.072719160 113.0
42.077643016 127.0
42.082566872 119.0
42.087490728 130.0
42.092414584 115.0
42.097338440 144.0
42.102262296 123.0
42.107186152 92.0
42.112110008 122.0
42.117033864 105.0
42.121957720 102.0
42.126881576 98.0
42.131805432 102.0
42.136729288 111.0
42.141653144 128.0
42.146577000 102.0
42.151500856 102.0
42.156424712 102.0
42.161348568 79.0
42.166272424 111.0
42.171196280 102.0
42.176120136 89.0
42.181043992 98.0
42.185967848 101.0
42.190891704 96.0
42.195815560 121.0
42.200739416 75.0
42.205663272 70.0
42.210587128 120.0
42.215510984 90.0
42.220434840 96.0
42.225358696 89.0
42.230282552 91.0
42.235206408 98.0
42.240130264 104.0
42.245054120 100.0
42.249977977 88.0
42.254901833 83.0
42.259825689 89.0
42.264749545 74.0
42.269673401 82.0
42.274597257 102.0
42.279521113 94.0
42.284444969 77.0
42.289368825 103.0
42.294292681 92.0
42.299216537 87.0
42.304140393 92.0
42.309064249 102.0
42.313988105 96.0
42.318911961 80.0
42.323835817 82.0
42.328759673 60.0
42.333683529 80.0
42.338607385 90.0
42.343531241 73.0
42.348455097 69.0
42.353378953 82.0
42.358302809 69.0
42.363226665 82.0
42.368150521 80.0
42.373074377 85.0
42.377998233 80.0
42.382922089 99.0
42.387845945 91.0
42.392769801 71.0
42.397693657 73.0
42.402617513 76.0
42.407541369 87.0
42.412465225 66.0
42.417389081 92.0
42.422312937 88.0
42.427236793 88.0
42.432160649 87.0
42.437084505 64.0
42.442008361 84.0
42.446932217 84.0
42.451856073 78.0
42.456779929 74.0
42.461703785 72.0
42.466627641 80.0
42.471551497 73.0
42.476475353 52.0
42.481399209 79.0
42.486323065 81.0
42.491246921 70.0
42.496170777 69.0
42.501094633 70.0
42.506018489 73.0
42.510942345 82.0
42.515866201 78.0
42.520790057 89.0
42.525713913 66.0
42.530637769 64.0
42.535561625 77.0
42.540485481 67.0
42.545409337 88.0
42.550333193 71.0
42.555257049 76.0
42.560180905 77.0
42.565104761 77.0
42.570028617 76.0
42.574952473 64.0
42.579876329 76.0
42.584800185 68.0
42.589724041 65.0
42.594647897 74.0
42.599571753 83.0
42.604495609 65.0
42.609419465 70.0
42.614343321 71.0
42.619267177 79.0
42.624191033 76.0
42.629114889 80.0
42.634038745 79.0
42.638962601 78.0
42.643886457 70.0
42.648810313 80.0
42.653734169 77.0
42.658658025 63.0
42.663581881 62.0
42.668505737 70.0
42.673429593 61.0
42.678353449 59.0
42.683277305 68.0
42.688201161 71.0
42.693125017 77.0
42.698048873 69.0
42.702972729 74.0
42.707896585 76.0
42.712820441 73.0
42.717744297 69.0
42.722668153 69.0
42.727592009 68.0
42.732515865 77.0
42.737439721 71.0
42.742363577 86.0
42.747287433 68.0
42.752211290 65.0
42.757135146 61.0
42.762059002 61.0
42.766982858 80.0
42.771906714 73.0
42.776830570 57.0
42.781754426 68.0
42.786678282 80.0
42.791602138 66.0
42.796525994 73.0
42.801449850 66.0
42.806373706 70.0
42.811297562 75.0
42.816221418 72.0
42.821145274 66.0
42.826069130 64.0
42.830992986 67.0
42.835916842 60.0
42.840840698 76.0
42.845764554 67.0
42.850688410 80.0
42.855612266 85.0
42.860536122 76.0
42.865459978 79.0
42.870383834 71.0
42.875307690 68.0
42.880231546 60.0
42.885155402 62.0
42.890079258 78.0
42.895003114 59.0
42.899926970 64.0
42.904850826 67.0
42.909774682 70.0
42.914698538 54.0
42.919622394 94.0
42.924546250 65.0
42.929470106 89.0
42.934393962 64.0
42.939317818 63.0
42.944241674 75.0
42.949165530 65.0
42.954089386 60.0
42.959013242 68.0
42.963937098 63.0
42.968860954 65.0
42.973784810 64.0
42.978708666 55.0
42.983632522 64.0
42.988556378 67.0
42.993480234 47.0
42.998404090 77.0
43.003327946 52.0
43.008251802 66.0
43.013175658 70.0
43.018099514 67.0
43.023023370 61.0
43.027947226 67.0
43.032871082 73.0
43.037794938 58.0
43.042718794 64.0
43.047642650 70.0
43.052566506 76.0
43.057490362 71.0
43.062414218 66.0
43.067338074 74.0
43.072261930 71.0
43.077185786 64.0
43.082109642 56.0
43.087033498 57.0
43.091957354 57.0
43.096881210 69.0
43.101805066 86.0
43.106728922 57.0
43.111652778 61.0
43.116576634 57.0
43.121500490 72.0
43.126424346 71.0
43.131348202 77.0
43.136272058 49.0
43.141195914 50.0
43.146119770 66.0
43.151043626 69.0
43.155967482 77.0
43.160891338 55.0
43.165815194 83.0
43.170739050 58.0
43.175662906 66.0
43.180586762 68.0
43.185510618 60.0
43.190434474 77.0
43.195358330 58.0
43.200282186 56.0
43.205206042 57.0
43.210129898 65.0
43.215053754 65.0
43.219977610 61.0
43.224901466 51.0
43.229825322 70.0
43.234749178 74.0
43.239673034 77.0
43.244596890 60.0
43.249520747 60.0
43.254444603 66.0
43.259368459 74.0
43.264292315 71.0
43.269216171 54.0
43.274140027 56.0
43.279063883 65.0
43.283987739 57.0
43.288911595 78.0
43.293835451 68.0
43.298759307 55.0
43.303683163 71.0
43.308607019 79.0
43.313530875 70.0
43.318454731 51.0
43.323378587 49.0
43.328302443 59.0
43.333226299 62.0
43.338150155 66.0
43.343074011 64.0
43.347997867 67.0
43.352921723 62.0
43.357845579 84.0
43.362769435 70.0
43.367693291 76.0
43.372617147 63.0
43.377541003 51.0
43.382464859 71.0
43.387388715 72.0
43.392312571 54.0
43.397236427 69.0
43.402160283 80.0
43.407084139 65.0
43.412007995 64.0
43.416931851 70.0
43.421855707 81.0
43.426779563 70.0
43.431703419 54.0
43.436627275 77.0
43.441551131 66.0
43.446474987 69.0
43.451398843 69.0
43.456322699 60.0
43.461246555 78.0
43.466170411 69.0
43.471094267 76.0
43.476018123 74.0
43.480941979 60.0
43.485865835 70.0
43.490789691 68.0
43.495713547 66.0
43.500637403 79.0
43.505561259 67.0
43.510485115 64.0
43.515408971 67.0
43.520332827 59.0
43.525256683 64.0
43.530180539 65.0
43.535104395 61.0
43.540028251 64.0
43.544952107 63.0
43.549875963 66.0
43.554799819 61.0
43.559723675 64.0
43.564647531 70.0
43.569571387 64.0
43.574495243 54.0
43.579419099 66.0
43.584342955 72.0
43.589266811 63.0
43.594190667 72.0
43.599114523 46.0
43.604038379 68.0
43.608962235 60.0
43.613886091 68.0
43.618809947 71.0
43.623733803 73.0
43.628657659 67.0
43.633581515 54.0
43.638505371 59.0
43.643429227 57.0
43.648353083 57.0
43.653276939 73.0
43.658200795 62.0
43.663124651 63.0
43.668048507 58.0
43.672972363 66.0
43.677896219 75.0
43.682820075 77.0
43.687743931 77.0
43.692667787 74.0
43.697591643 70.0
43.702515499 76.0
43.707439355 76.0
43.712363211 60.0
43.717287067 66.0
43.722210923 59.0
43.727134779 68.0
43.732058635 67.0
43.736982491 78.0
43.741906347 75.0
43.746830203 66.0
43.751754060 86.0
43.756677916 65.0
43.761601772 76.0
43.766525628 80.0
43.771449484 69.0
43.776373340 94.0
43.781297196 63.0
43.786221052 90.0
43.791144908 55.0
43.796068764 66.0
43.800992620 51.0
43.805916476 64.0
43.810840332 80.0
43.815764188 83.0
43.820688044 63.0
43.825611900 77.0
43.830535756 61.0
43.835459612 78.0
43.840383468 60.0
43.845307324 73.0
43.850231180 68.0
43.855155036 74.0
43.860078892 73.0
43.865002748 64.0
43.869926604 67.0
43.874850460 62.0
43.879774316 76.0
43.884698172 75.0
43.889622028 73.0
43.894545884 84.0
43.899469740 69.0
43.904393596 71.0
43.909317452 73.0
43.914241308 71.0
43.919165164 68.0
43.924089020 79.0
43.929012876 75.0
43.933936732 74.0
43.938860588 81.0
43.943784444 71.0
43.948708300 80.0
43.953632156 85.0
43.958556012 73.0
43.963479868 76.0
43.968403724 85.0
43.973327580 94.0
43.978251436 83.0
43.983175292 88.0
43.988099148 74.0
43.993023004 74.0
43.997946860 69.0
44.002870716 74.0
44.007794572 78.0
44.012718428 90.0
44.017642284 68.0
44.022566140 77.0
44.027489996 75.0
44.032413852 80.0
44.037337708 77.0
44.042261564 78.0
44.047185420 89.0
44.052109276 83.0
44.057033132 74.0
44.061956988 82.0
44.066880844 75.0
44.071804700 77.0
44.076728556 72.0
44.081652412 86.0
44.086576268 70.0
44.091500124 79.0
44.096423980 72.0
44.101347836 88.0
44.106271692 82.0
44.111195548 99.0
44.116119404 93.0
44.121043260 88.0
44.125967116 81.0
44.130890972 81.0
44.135814828 73.0
44.140738684 83.0
44.145662540 89.0
44.150586396 73.0
44.155510252 78.0
44.160434108 95.0
44.165357964 85.0
44.170281820 114.0
44.175205676 83.0
44.180129532 92.0
44.185053388 82.0
44.189977244 91.0
44.194901100 88.0
44.199824956 87.0
44.204748812 86.0
44.209672668 94.0
44.214596524 92.0
44.219520380 85.0
44.224444236 105.0
44.229368092 99.0
44.234291948 97.0
44.239215804 95.0
44.244139660 105.0
44.249063517 96.0
44.253987373 100.0
44.258911229 113.0
44.263835085 92.0
44.268758941 107.0
44.273682797 106.0
44.278606653 108.0
44.283530509 90.0
44.288454365 137.0
44.293378221 101.0
44.298302077 105.0
44.303225933 127.0
44.308149789 120.0
44.313073645 148.0
44.317997501 122.0
44.322921357 112.0
44.327845213 125.0
44.332769069 138.0
44.337692925 126.0
44.342616781 129.0
44.347540637 131.0
44.352464493 146.0
44.357388349 140.0
44.362312205 135.0
44.367236061 134.0
44.372159917 141.0
44.377083773 130.0
44.382007629 124.0
44.386931485 146.0
44.391855341 157.0
44.396779197 145.0
44.401703053 154.0
44.406626909 125.0
44.411550765 135.0
44.416474621 151.0
44.421398477 135.0
44.426322333 123.0
44.431246189 139.0
44.436170045 154.0
44.441093901 126.0
44.446017757 135.0
44.450941613 130.0
44.455865469 142.0
44.460789325 119.0
44.465713181 113.0
44.470637037 143.0
44.475560893 124.0
44.480484749 117.0
44.485408605 131.0
44.490332461 110.0
44.495256317 146.0
44.500180173 130.0
44.505104029 103.0
44.510027885 118.0
44.514951741 133.0
44.519875597 105.0
44.524799453 100.0
44.529723309 129.0
44.534647165 124.0
44.539571021 110.0
44.544494877 124.0
44.549418733 126.0
44.554342589 124.0
44.559266445 122.0
44.564190301 110.0
44.569114157 104.0
44.574038013 126.0
44.578961869 115.0
44.583885725 107.0
44.588809581 98.0
44.593733437 123.0
44.598657293 93.0
44.603581149 109.0
44.608505005 118.0
44.613428861 94.0
44.618352717 100.0
44.623276573 95.0
44.628200429 97.0
44.633124285 81.0
44.638048141 98.0
44.642971997 82.0
44.647895853 85.0
44.652819709 99.0
44.657743565 101.0
44.662667421 95.0
44.667591277 93.0
44.672515133 79.0
44.677438989 79.0
44.682362845 89.0
44.687286701 97.0
44.692210557 100.0
44.697134413 80.0
44.702058269 77.0
44.706982125 77.0
44.711905981 75.0
44.716829837 84.0
44.721753693 79.0
44.726677549 77.0
44.731601405 68.0
44.736525261 74.0
44.741449117 76.0
44.746372973 68.0
44.751296830 70.0
44.756220686 71.0
44.761144542 69.0
44.766068398 79.0
44.770992254 70.0
44.775916110 82.0
44.780839966 83.0
44.785763822 78.0
44.790687678 75.0
44.795611534 73.0
44.800535390 57.0
44.805459246 62.0
44.810383102 70.0
44.815306958 67.0
44.820230814 64.0
44.825154670 67.0
44.830078526 83.0
44.835002382 77.0
44.839926238 59.0
44.844850094 59.0
44.849773950 79.0
44.854697806 71.0
44.859621662 67.0
44.864545518 77.0
44.869469374 75.0
44.874393230 66.0
44.879317086 73.0
44.884240942 67.0
44.889164798 69.0
44.894088654 63.0
44.899012510 72.0
44.903936366 77.0
44.908860222 74.0
44.913784078 72.0
44.918707934 70.0
44.923631790 78.0
44.928555646 62.0
44.933479502 71.0
44.938403358 62.0
44.943327214 51.0
44.948251070 73.0
44.953174926 50.0
44.958098782 78.0
44.963022638 63.0
44.967946494 69.0
44.972870350 62.0
44.977794206 63.0
44.982718062 60.0
44.987641918 62.0
44.992565774 73.0
44.997489630 61.0
