35.002061930 110.0
35.006985786 115.0
35.011909642 143.0
35.016833498 123.0
35.021757354 137.0
35.026681210 116.0
35.031605066 137.0
35.036528922 117.0
35.041452778 116.0
35.046376634 151.0
35.051300490 138.0
35.056224346 111.0
35.061148202 136.0
35.066072058 155.0
35.070995914 125.0
35.075919770 116.0
35.080843626 136.0
35.085767482 126.0
35.090691338 146.0
35.095615194 135.0
35.100539050 112.0
35.105462906 114.0
35.110386762 136.0
35.115310618 131.0
35.120234474 116.0
35.125158330 125.0
35.130082186 120.0
35.135006042 108.0
35.139929898 114.0
35.144853754 131.0
35.149777610 115.0
35.154701466 136.0
35.159625322 133.0
35.164549178 113.0
35.169473034 126.0
35.174396890 119.0
35.179320746 138.0
35.184244602 115.0
35.189168458 152.0
35.194092314 143.0
35.199016170 122.0
35.203940026 129.0
35.208863882 132.0
35.213787738 102.0
35.218711594 122.0
35.223635450 106.0
35.228559306 121.0
35.233483162 121.0
35.238407018 128.0
35.243330874 122.0
35.248254730 146.0
35.253178587 126.0
35.258102443 143.0
35.263026299 121.0
35.267950155 125.0
35.272874011 108.0
35.277797867 131.0
35.282721723 105.0
35.287645579 118.0
35.292569435 129.0
35.297493291 126.0
35.302417147 127.0
35.307341003 128.0
35.312264859 120.0
35.317188715 122.0
35.322112571 122.0
35.327036427 141.0
35.331960283 102.0
35.336884139 115.0
35.341807995 106.0
35.346731851 113.0
35.351655707 116.0
35.356579563 119.0
35.361503419 134.0
35.366427275 120.0
35.371351131 131.0
35.376274987 118.0
35.381198843 134.0
35.386122699 142.0
35.391046555 136.0
35.395970411 121.0
35.400894267 118.0
35.405818123 118.0
35.410741979 110.0
35.415665835 120.0
35.420589691 123.0
35.425513547 128.0
35.430437403 126.0
35.435361259 125.0
35.440285115 125.0
35.445208971 109.0
35.450132827 118.0
35.455056683 103.0
35.459980539 130.0
35.464904395 116.0
35.469828251 106.0
35.474752107 129.0
35.479675963 125.0
35.484599819 128.0
35.489523675 114.0
35.494447531 127.0
35.499371387 117.0
35.504295243 155.0
35.509219099 128.0
35.514142955 139.0
35.519066811 123.0
35.523990667 115.0
35.528914523 113.0
35.533838379 115.0
35.538762235 128.0
35.543686091 135.0
35.548609947 139.0
35.553533803 123.0
35.558457659 121.0
35.563381515 119.0
35.568305371 117.0
35.573229227 123.0
35.578153083 123.0
35.583076939 138.0
35.588000795 108.0
35.592924651 128.0
35.597848507 114.0
35.602772363 133.0
35.607696219 105.0
35.612620075 121.0
35.617543931 123.0
35.622467787 121.0
35.627391643 108.0
35.632315499 143.0
35.637239355 129.0
35.642163211 142.0
35.647087067 117.0
35.652010923 114.0
35.656934779 131.0
35.661858635 129.0
35.666782491 112.0
35.671706347 134.0
35.676630203 118.0
35.681554059 123.0
35.686477915 118.0
35.691401771 100.0
35.696325627 119.0
35.701249483 143.0
35.706173339 107.0
35.711097195 120.0
35.716021051 107.0
35.720944907 130.0
35.725868763 129.0
35.730792619 116.0
35.735716475 121.0
35.740640331 106.0
35.745564187 118.0
35.750488043 99.0
35.755411900 144.0
35.760335756 113.0
35.765259612 117.0
35.770183468 142.0
35.775107324 123.0
35.780031180 145.0
35.784955036 122.0
35.789878892 125.0
35.794802748 115.0
35.799726604 132.0
35.804650460 134.0
35.809574316 132.0
35.814498172 139.0
35.819422028 133.0
35.824345884 122.0
35.829269740 110.0
35.834193596 135.0
35.839117452 139.0
35.844041308 123.0
35.848965164 122.0
35.853889020 132.0
35.858812876 127.0
35.863736732 125.0
35.868660588 152.0
35.873584444 116.0
35.878508300 125.0
35.883432156 128.0
35.888356012 126.0
35.893279868 111.0
35.898203724 109.0
35.903127580 113.0
35.908051436 121.0
35.912975292 132.0
35.917899148 119.0
35.922823004 132.0
35.927746860 112.0
35.932670716 145.0
35.937594572 125.0
35.942518428 119.0
35.947442284 122.0
35.952366140 118.0
35.957289996 101.0
35.962213852 107.0
35.967137708 119.0
35.972061564 133.0
35.976985420 128.0
35.981909276 110.0
35.986833132 116.0
35.991756988 139.0
35.996680844 120.0
36.001604700 142.0
36.006528556 137.0
36.011452412 134.0
36.016376268 129.0
36.021300124 121.0
36.026223980 110.0
36.031147836 128.0
36.036071692 101.0
36.040995548 137.0
36.045919404 120.0
36.050843260 124.0
36.055767116 103.0
36.060690972 119.0
36.065614828 107.0
36.070538684 109.0
36.075462540 107.0
36.080386396 114.0
36.085310252 112.0
36.090234108 129.0
36.095157964 127.0
36.100081820 107.0
36.105005676 153.0
36.109929532 118.0
36.114853388 138.0
36.119777244 129.0
36.124701100 140.0
36.129624956 133.0
36.134548812 120.0
36.139472668 133.0
36.144396524 129.0
36.149320380 123.0
36.154244236 136.0
36.159168092 124.0
36.164091948 105.0
36.169015804 133.0
36.173939660 142.0
36.178863516 110.0
36.183787372 135.0
36.188711228 116.0
36.193635084 153.0
36.198558940 121.0
36.203482796 133.0
36.208406652 113.0
36.213330508 108.0
36.218254364 123.0
36.223178220 125.0
36.228102076 132.0
36.233025932 108.0
36.237949788 135.0
36.242873644 117.0
36.247797500 128.0
36.252721357 133.0
36.257645213 146.0
36.262569069 100.0
36.267492925 112.0
36.272416781 113.0
36.277340637 129.0
36.282264493 128.0
36.287188349 128.0
36.292112205 120.0
36.297036061 123.0
36.301959917 134.0
36.306883773 123.0
36.311807629 117.0
36.316731485 118.0
36.321655341 113.0
36.326579197 104.0
36.331503053 132.0
36.336426909 139.0
36.341350765 129.0
36.346274621 133.0
36.351198477 142.0
36.356122333 102.0
36.361046189 126.0
36.365970045 112.0
36.370893901 114.0
36.375817757 125.0
36.380741613 128.0
36.385665469 143.0
36.390589325 140.0
36.395513181 103.0
36.400437037 137.0
36.405360893 138.0
36.410284749 117.0
36.415208605 117.0
36.420132461 123.0
36.425056317 122.0
36.429980173 146.0
36.434904029 122.0
36.439827885 136.0
36.444751741 141.0
36.449675597 120.0
36.454599453 118.0
36.459523309 140.0
36.464447165 126.0
36.469371021 126.0
36.474294877 131.0
36.479218733 146.0
36.484142589 130.0
36.489066445 143.0
36.493990301 122.0
36.498914157 107.0
36.503838013 97.0
36.508761869 113.0
36.513685725 132.0
36.518609581 144.0
36.523533437 138.0
36.528457293 133.0
36.533381149 122.0
36.538305005 117.0
36.543228861 129.0
36.548152717 114.0
36.553076573 127.0
36.558000429 128.0
36.562924285 116.0
36.567848141 121.0
36.572771997 112.0
36.577695853 126.0
36.582619709 135.0
36.587543565 126.0
36.592467421 120.0
36.597391277 126.0
36.602315133 119.0
36.607238989 124.0
36.612162845 117.0
36.617086701 118.0
36.622010557 131.0
36.626934413 127.0
36.631858269 122.0
36.636782125 134.0
36.641705981 131.0
36.646629837 119.0
36.651553693 140.0
36.656477549 134.0
36.661401405 128.0
36.666325261 128.0
36.671249117 110.0
36.676172973 146.0
36.681096829 124.0
36.686020685 139.0
36.690944541 120.0
36.695868397 114.0
36.700792253 124.0
36.705716109 135.0
36.710639965 94.0
36.715563821 125.0
36.720487677 132.0
36.725411533 125.0
36.730335389 118.0
36.735259245 129.0
36.740183101 114.0
36.745106957 98.0
36.750030813 134.0
36.754954670 124.0
36.759878526 121.0
36.764802382 121.0
36.769726238 132.0
36.774650094 128.0
36.779573950 129.0
36.784497806 108.0
36.789421662 118.0
36.794345518 131.0
36.799269374 115.0
36.804193230 147.0
36.809117086 109.0
36.814040942 120.0
36.818964798 137.0
36.823888654 131.0
36.828812510 124.0
36.833736366 111.0
36.838660222 127.0
36.843584078 130.0
36.848507934 140.0
36.853431790 116.0
36.858355646 104.0
36.863279502 114.0
36.868203358 133.0
36.873127214 125.0
36.878051070 123.0
36.882974926 124.0
36.887898782 135.0
36.892822638 136.0
36.897746494 128.0
36.902670350 119.0
36.907594206 117.0
36.912518062 117.0
36.917441918 133.0
36.922365774 127.0
36.927289630 133.0
36.932213486 136.0
36.937137342 126.0
36.942061198 119.0
36.946985054 129.0
36.951908910 126.0
36.956832766 125.0
36.961756622 140.0
36.966680478 114.0
36.971604334 115.0
36.976528190 128.0
36.981452046 112.0
36.986375902 128.0
36.991299758 126.0
36.996223614 119.0
37.001147470 134.0
37.006071326 119.0
37.010995182 115.0
37.015919038 123.0
37.020842894 122.0
37.025766750 116.0
37.030690606 120.0
37.035614462 128.0
37.040538318 119.0
37.045462174 118.0
37.050386030 120.0
37.055309886 132.0
37.060233742 130.0
37.065157598 116.0
37.070081454 126.0
37.075005310 132.0
37.079929166 123.0
37.084853022 113.0
37.089776878 120.0
37.094700734 117.0
37.099624590 127.0
37.104548446 151.0
37.109472302 139.0
37.114396158 141.0
37.119320014 143.0
37.124243870 126.0
37.129167726 141.0
37.134091582 137.0
37.139015438 113.0
37.143939294 117.0
37.148863150 131.0
37.153787006 128.0
37.158710862 126.0
37.163634718 136.0
37.168558574 137.0
37.173482430 136.0
37.178406286 120.0
37.183330142 109.0
37.188253998 131.0
37.193177854 140.0
37.198101710 126.0
37.203025566 130.0
37.207949422 134.0
37.212873278 124.0
37.217797134 119.0
37.222720990 132.0
37.227644846 134.0
37.232568702 114.0
37.237492558 126.0
37.242416414 117.0
37.247340270 142.0
37.252264127 130.0
37.257187983 119.0
37.262111839 139.0
37.267035695 113.0
37.271959551 136.0
37.276883407 132.0
37.281807263 123.0
37.286731119 132.0
37.291654975 128.0
37.296578831 127.0
37.301502687 160.0
37.306426543 133.0
37.311350399 140.0
37.316274255 117.0
37.321198111 129.0
37.326121967 130.0
37.331045823 118.0
37.335969679 135.0
37.340893535 141.0
37.345817391 154.0
37.350741247 114.0
37.355665103 136.0
37.360588959 142.0
37.365512815 110.0
37.370436671 137.0
37.375360527 157.0
37.380284383 146.0
37.385208239 143.0
37.390132095 154.0
37.395055951 166.0
37.399979807 193.0
37.404903663 163.0
37.409827519 262.0
37.414751375 258.0
37.419675231 306.0
37.424599087 335.0
37.429522943 325.0
37.434446799 329.0
37.439370655 332.0
37.444294511 346.0
37.449218367 332.0
37.454142223 331.0
37.459066079 278.0
37.463989935 267.0
37.468913791 212.0
37.473837647 209.0
37.478761503 178.0
37.483685359 181.0
37.488609215 155.0
37.493533071 142.0
37.498456927 139.0
37.503380783 135.0
37.508304639 151.0
37.513228495 133.0
37.518152351 130.0
37.523076207 125.0
37.528000063 139.0
37.532923919 129.0
37.537847775 139.0
37.542771631 122.0
37.547695487 129.0
37.552619343 135.0
37.557543199 148.0
37.562467055 124.0
37.567390911 136.0
37.572314767 120.0
37.577238623 127.0
37.582162479 116.0
37.587086335 137.0
37.592010191 135.0
37.596934047 137.0
37.601857903 139.0
37.606781759 130.0
37.611705615 133.0
37.616629471 122.0
37.621553327 135.0
37.626477183 122.0
37.631401039 159.0
37.636324895 150.0
37.641248751 120.0
37.646172607 115.0
37.651096463 131.0
37.656020319 131.0
37.660944175 138.0
37.665868031 135.0
37.670791887 152.0
37.675715743 130.0
37.680639599 136.0
37.685563455 148.0
37.690487311 131.0
37.695411167 133.0
37.700335023 124.0
37.705258879 129.0
37.710182735 130.0
37.715106591 118.0
37.720030447 127.0
37.724954303 141.0
37.729878159 128.0
37.734802015 128.0
37.739725871 130.0
37.744649727 147.0
37.749573583 134.0
37.754497440 126.0
37.759421296 127.0
37.764345152 124.0
37.769269008 117.0
37.774192864 134.0
37.779116720 147.0
37.784040576 113.0
37.788964432 135.0
37.793888288 127.0
37.798812144 133.0
37.803736000 118.0
37.808659856 131.0
37.813583712 119.0
37.818507568 139.0
37.823431424 153.0
37.828355280 123.0
37.833279136 137.0
37.838202992 112.0
37.843126848 130.0
37.848050704 154.0
37.852974560 147.0
37.857898416 154.0
37.862822272 148.0
37.867746128 125.0
37.872669984 123.0
37.877593840 120.0
37.882517696 115.0
37.887441552 148.0
37.892365408 145.0
37.897289264 131.0
37.902213120 126.0
37.907136976 133.0
37.912060832 135.0
37.916984688 138.0
37.921908544 141.0
37.926832400 135.0
37.931756256 120.0
37.936680112 134.0
37.941603968 150.0
37.946527824 142.0
37.951451680 137.0
37.956375536 133.0
37.961299392 133.0
37.966223248 144.0
37.971147104 135.0
37.976070960 126.0
37.980994816 137.0
37.985918672 146.0
37.990842528 105.0
37.995766384 131.0
38.000690240 139.0
38.005614096 131.0
38.010537952 139.0
38.015461808 139.0
38.020385664 134.0
38.025309520 115.0
38.030233376 141.0
38.035157232 118.0
38.040081088 131.0
38.045004944 134.0
38.049928800 116.0
38.054852656 124.0
38.059776512 122.0
38.064700368 129.0
38.069624224 112.0
38.074548080 154.0
38.079471936 138.0
38.084395792 123.0
38.089319648 136.0
38.094243504 134.0
38.099167360 143.0
38.104091216 115.0
38.109015072 144.0
38.113938928 153.0
38.118862784 115.0
38.123786640 135.0
38.128710496 109.0
38.133634352 132.0
38.138558208 122.0
38.143482064 125.0
38.148405920 127.0
38.153329776 138.0
38.158253632 149.0
38.163177488 145.0
38.168101344 116.0
38.173025200 135.0
38.177949056 134.0
38.182872912 112.0
38.187796768 142.0
38.192720624 143.0
38.197644480 151.0
38.202568336 143.0
38.207492192 141.0
38.212416048 126.0
38.217339904 128.0
38.222263760 108.0
38.227187616 136.0
38.232111472 117.0
38.237035328 114.0
38.241959184 130.0
38.246883040 157.0
38.251806897 119.0
38.256730753 147.0
38.261654609 135.0
38.266578465 127.0
38.271502321 128.0
38.276426177 127.0
38.281350033 123.0
38.286273889 139.0
38.291197745 137.0
38.296121601 100.0
38.301045457 137.0
38.305969313 126.0
38.310893169 133.0
38.315817025 127.0
38.320740881 159.0
38.325664737 136.0
38.330588593 128.0
38.335512449 122.0
38.340436305 148.0
38.345360161 140.0
38.350284017 154.0
38.355207873 135.0
38.360131729 132.0
38.365055585 141.0
38.369979441 133.0
38.374903297 167.0
38.379827153 144.0
38.384751009 139.0
38.389674865 150.0
38.394598721 127.0
38.399522577 162.0
38.404446433 144.0
38.409370289 126.0
38.414294145 132.0
38.419218001 142.0
38.424141857 149.0
38.429065713 157.0
38.433989569 168.0
38.438913425 155.0
38.443837281 141.0
38.448761137 144.0
38.453684993 150.0
38.458608849 124.0
38.463532705 145.0
38.468456561 152.0
38.473380417 132.0
38.478304273 122.0
38.483228129 160.0
38.488151985 159.0
38.493075841 134.0
38.497999697 123.0
38.502923553 146.0
38.507847409 140.0
38.512771265 114.0
38.517695121 138.0
38.522618977 172.0
38.527542833 159.0
38.532466689 168.0
38.537390545 141.0
38.542314401 182.0
38.547238257 155.0
38.552162113 158.0
38.557085969 141.0
38.562009825 126.0
38.566933681 162.0
38.571857537 175.0
38.576781393 178.0
38.581705249 149.0
38.586629105 167.0
38.591552961 157.0
38.596476817 170.0
38.601400673 180.0
38.606324529 153.0
38.611248385 169.0
38.616172241 169.0
38.621096097 184.0
38.626019953 155.0
38.630943809 160.0
38.635867665 155.0
38.640791521 183.0
38.645715377 196.0
38.650639233 172.0
38.655563089 179.0
38.660486945 168.0
38.665410801 192.0
38.670334657 167.0
38.675258513 179.0
38.680182369 183.0
38.685106225 179.0
38.690030081 168.0
38.694953937 154.0
38.699877793 182.0
38.704801649 186.0
38.709725505 175.0
38.714649361 187.0
38.719573217 170.0
38.724497073 203.0
38.729420929 173.0
38.734344785 171.0
38.739268641 174.0
38.744192497 201.0
38.749116353 201.0
38.754040210 206.0
38.758964066 207.0
38.763887922 202.0
38.768811778 206.0
38.773735634 220.0
38.778659490 214.0
38.783583346 187.0
38.788507202 209.0
38.793431058 218.0
38.798354914 227.0
38.803278770 198.0
38.808202626 213.0
38.813126482 181.0
38.818050338 211.0
38.822974194 209.0
38.827898050 175.0
38.832821906 227.0
38.837745762 227.0
38.842669618 199.0
38.847593474 207.0
38.852517330 212.0
38.857441186 225.0
38.862365042 226.0
38.867288898 215.0
38.872212754 192.0
38.877136610 216.0
38.882060466 224.0
38.886984322 236.0
38.891908178 225.0
38.896832034 258.0
38.901755890 217.0
38.906679746 221.0
38.911603602 236.0
38.916527458 228.0
38.921451314 216.0
38.926375170 233.0
38.931299026 221.0
38.936222882 272.0
38.941146738 223.0
38.946070594 216.0
38.950994450 275.0
38.955918306 275.0
38.960842162 221.0
38.965766018 256.0
38.970689874 224.0
38.975613730 197.0
38.980537586 261.0
38.985461442 234.0
38.990385298 256.0
38.995309154 235.0
39.000233010 277.0
39.005156866 266.0
39.010080722 225.0
39.015004578 219.0
39.019928434 262.0
39.024852290 232.0
39.029776146 230.0
39.034700002 263.0
39.039623858 278.0
39.044547714 261.0
39.049471570 295.0
39.054395426 273.0
39.059319282 261.0
39.064243138 258.0
39.069166994 280.0
39.074090850 267.0
39.079014706 262.0
39.083938562 263.0
39.088862418 263.0
39.093786274 267.0
39.098710130 264.0
39.103633986 301.0
39.108557842 282.0
39.113481698 282.0
39.118405554 266.0
39.123329410 286.0
39.128253266 266.0
39.133177122 267.0
39.138100978 261.0
39.143024834 305.0
39.147948690 287.0
39.152872546 274.0
39.157796402 299.0
39.162720258 264.0
39.167644114 285.0
39.172567970 259.0
39.177491826 280.0
39.182415682 263.0
39.187339538 284.0
39.192263394 300.0
39.197187250 270.0
39.202111106 272.0
39.207034962 270.0
39.211958818 278.0
39.216882674 283.0
39.221806530 278.0
39.226730386 271.0
39.231654242 310.0
39.236578098 280.0
39.241501954 267.0
39.246425810 268.0
39.251349667 231.0
39.256273523 260.0
39.261197379 273.0
39.266121235 281.0
39.271045091 268.0
39.275968947 227.0
39.280892803 266.0
39.285816659 269.0
39.290740515 274.0
39.295664371 273.0
39.300588227 278.0
39.305512083 294.0
39.310435939 260.0
39.315359795 260.0
39.320283651 233.0
39.325207507 260.0
39.330131363 257.0
39.335055219 287.0
39.339979075 234.0
39.344902931 238.0
39.349826787 259.0
39.354750643 213.0
39.359674499 257.0
39.364598355 266.0
39.369522211 287.0
39.374446067 237.0
39.379369923 276.0
39.384293779 232.0
39.389217635 256.0
39.394141491 234.0
39.399065347 219.0
39.403989203 265.0
39.408913059 256.0
39.413836915 222.0
39.418760771 214.0
39.423684627 227.0
39.428608483 232.0
39.433532339 221.0
39.438456195 269.0
39.443380051 228.0
39.448303907 204.0
39.453227763 194.0
39.458151619 264.0
39.463075475 218.0
39.467999331 214.0
39.472923187 216.0
39.477847043 210.0
39.482770899 221.0
39.487694755 210.0
39.492618611 216.0
39.497542467 257.0
39.502466323 215.0
39.507390179 236.0
39.512314035 214.0
39.517237891 224.0
39.522161747 207.0
39.527085603 182.0
39.532009459 206.0
39.536933315 212.0
39.541857171 187.0
39.546781027 205.0
39.551704883 217.0
39.556628739 177.0
39.561552595 208.0
39.566476451 175.0
39.571400307 239.0
39.576324163 217.0
39.581248019 193.0
39.586171875 194.0
39.591095731 170.0
39.596019587 201.0
39.600943443 188.0
39.605867299 189.0
39.610791155 200.0
39.615715011 165.0
39.620638867 178.0
39.625562723 184.0
39.630486579 177.0
39.635410435 183.0
39.640334291 165.0
39.645258147 198.0
39.650182003 183.0
39.655105859 197.0
39.660029715 159.0
39.664953571 175.0
39.669877427 183.0
39.674801283 177.0
39.679725139 160.0
39.684648995 197.0
39.689572851 174.0
39.694496707 157.0
39.699420563 188.0
39.704344419 158.0
39.709268275 165.0
39.714192131 170.0
39.719115987 173.0
39.724039843 173.0
39.728963699 174.0
39.733887555 173.0
39.738811411 148.0
39.743735267 163.0
39.748659123 151.0
39.753582980 151.0
39.758506836 182.0
39.763430692 155.0
39.768354548 146.0
39.773278404 160.0
39.778202260 156.0
39.783126116 157.0
39.788049972 176.0
39.792973828 161.0
39.797897684 156.0
39.802821540 154.0
39.807745396 163.0
39.812669252 136.0
39.817593108 144.0
39.822516964 157.0
39.827440820 161.0
39.832364676 157.0
39.837288532 155.0
39.842212388 158.0
39.847136244 152.0
39.852060100 158.0
39.856983956 158.0
39.861907812 151.0
39.866831668 137.0
39.871755524 159.0
39.876679380 150.0
39.881603236 143.0
39.886527092 165.0
39.891450948 140.0
39.896374804 159.0
39.901298660 149.0
39.906222516 135.0
39.911146372 163.0
39.916070228 164.0
39.920994084 140.0
39.925917940 149.0
39.930841796 142.0
39.935765652 126.0
39.940689508 158.0
39.945613364 141.0
39.950537220 139.0
39.955461076 155.0
39.960384932 155.0
39.965308788 144.0
39.970232644 137.0
39.975156500 139.0
39.980080356 157.0
39.985004212 138.0
39.989928068 137.0
39.994851924 135.0
39.999775780 134.0
40.004699636 134.0
40.009623492 136.0
40.014547348 135.0
40.019471204 120.0
40.024395060 139.0
40.029318916 139.0
40.034242772 150.0
40.039166628 153.0
40.044090484 152.0
40.049014340 152.0
40.053938196 136.0
40.058862052 129.0
40.063785908 126.0
40.068709764 150.0
40.073633620 142.0
40.078557476 142.0
40.083481332 147.0
40.088405188 154.0
40.093329044 134.0
40.098252900 124.0
40.103176756 137.0
40.108100612 144.0
40.113024468 140.0
40.117948324 138.0
40.122872180 137.0
40.127796036 126.0
40.132719892 138.0
40.137643748 139.0
40.142567604 133.0
40.147491460 126.0
40.152415316 131.0
40.157339172 128.0
40.162263028 130.0
40.167186884 149.0
40.172110740 152.0
40.177034596 131.0
40.181958452 125.0
40.186882308 130.0
40.191806164 158.0
40.196730020 127.0
40.201653876 149.0
40.206577732 136.0
40.211501588 142.0
40.216425444 143.0
40.221349300 153.0
40.226273156 147.0
40.231197012 134.0
40.236120868 153.0
40.241044724 138.0
40.245968580 142.0
40.250892437 133.0
40.255816293 145.0
40.260740149 145.0
40.265664005 146.0
40.270587861 128.0
40.275511717 165.0
40.280435573 161.0
40.285359429 141.0
40.290283285 149.0
40.295207141 144.0
40.300130997 152.0
40.305054853 141.0
40.309978709 130.0
40.314902565 142.0
40.319826421 130.0
40.324750277 138.0
40.329674133 153.0
40.334597989 158.0
40.339521845 137.0
40.344445701 143.0
40.349369557 145.0
40.354293413 135.0
40.359217269 143.0
40.364141125 116.0
40.369064981 154.0
40.373988837 146.0
40.378912693 168.0
40.383836549 162.0
40.388760405 146.0
40.393684261 131.0
40.398608117 157.0
40.403531973 144.0
40.408455829 156.0
40.413379685 157.0
40.418303541 137.0
40.423227397 155.0
40.428151253 132.0
40.433075109 128.0
40.437998965 133.0
40.442922821 161.0
40.447846677 150.0
40.452770533 137.0
40.457694389 152.0
40.462618245 147.0
40.467542101 147.0
40.472465957 153.0
40.477389813 141.0
40.482313669 149.0
40.487237525 150.0
40.492161381 164.0
40.497085237 159.0
40.502009093 157.0
40.506932949 169.0
40.511856805 170.0
40.516780661 168.0
40.521704517 160.0
40.526628373 132.0
40.531552229 144.0
40.536476085 149.0
40.541399941 162.0
40.546323797 134.0
40.551247653 143.0
40.556171509 156.0
40.561095365 156.0
40.566019221 150.0
40.570943077 144.0
40.575866933 175.0
40.580790789 162.0
40.585714645 160.0
40.590638501 153.0
40.595562357 160.0
40.600486213 167.0
40.605410069 151.0
40.610333925 178.0
40.615257781 168.0
40.620181637 170.0
40.625105493 161.0
40.630029349 151.0
40.634953205 174.0
40.639877061 171.0
40.644800917 160.0
40.649724773 155.0
40.654648629 166.0
40.659572485 178.0
40.664496341 147.0
40.669420197 175.0
40.674344053 163.0
40.679267909 152.0
40.684191765 169.0
40.689115621 165.0
40.694039477 161.0
40.698963333 160.0
40.703887189 163.0
40.708811045 167.0
40.713734901 155.0
40.718658757 180.0
40.723582613 177.0
40.728506469 174.0
40.733430325 191.0
40.738354181 167.0
40.743278037 179.0
40.748201893 178.0
40.753125750 188.0
40.758049606 177.0
40.762973462 156.0
40.767897318 167.0
40.772821174 167.0
40.777745030 177.0
40.782668886 184.0
40.787592742 197.0
40.792516598 153.0
40.797440454 185.0
40.802364310 185.0
40.807288166 192.0
40.812212022 190.0
40.817135878 173.0
40.822059734 177.0
40.826983590 192.0
40.831907446 184.0
40.836831302 206.0
40.841755158 200.0
40.846679014 192.0
40.851602870 173.0
40.856526726 172.0
40.861450582 193.0
40.866374438 199.0
40.871298294 182.0
40.876222150 180.0
40.881146006 170.0
40.886069862 189.0
40.890993718 190.0
40.895917574 174.0
40.900841430 173.0
40.905765286 173.0
40.910689142 170.0
40.915612998 178.0
40.920536854 211.0
40.925460710 172.0
40.930384566 180.0
40.935308422 192.0
40.940232278 186.0
40.945156134 194.0
40.950079990 179.0
40.955003846 193.0
40.959927702 177.0
40.964851558 200.0
40.969775414 185.0
40.974699270 205.0
40.979623126 177.0
40.984546982 165.0
40.989470838 205.0
40.994394694 174.0
40.999318550 184.0
41.004242406 173.0
41.009166262 188.0
41.014090118 205.0
41.019013974 186.0
41.023937830 201.0
41.028861686 206.0
41.033785542 214.0
41.038709398 208.0
41.043633254 213.0
41.048557110 177.0
41.053480966 192.0
41.058404822 186.0
41.063328678 228.0
41.068252534 227.0
41.073176390 212.0
41.078100246 208.0
41.083024102 231.0
41.087947958 208.0
41.092871814 221.0
41.097795670 227.0
41.102719526 230.0
41.107643382 217.0
41.112567238 226.0
41.117491094 228.0
41.122414950 197.0
41.127338806 210.0
41.132262662 206.0
41.137186518 204.0
41.142110374 215.0
41.147034230 220.0
41.151958086 262.0
41.156881942 274.0
41.161805798 214.0
41.166729654 208.0
41.171653510 231.0
41.176577366 256.0
41.181501222 270.0
41.186425078 255.0
41.191348934 218.0
41.196272790 260.0
41.201196646 271.0
41.206120502 266.0
41.211044358 263.0
41.215968214 255.0
41.220892070 277.0
41.225815926 290.0
41.230739782 311.0
41.235663638 229.0
41.240587494 315.0
41.245511350 280.0
41.250435207 310.0
41.255359063 320.0
41.260282919 293.0
41.265206775 281.0
41.270130631 336.0
41.275054487 313.0
41.279978343 303.0
41.284902199 308.0
41.289826055 360.0
41.294749911 333.0
41.299673767 325.0
41.304597623 365.0
41.309521479 315.0
41.314445335 332.0
41.319369191 341.0
41.324293047 312.0
41.329216903 370.0
41.334140759 341.0
41.339064615 374.0
41.343988471 408.0
41.348912327 394.0
41.353836183 407.0
41.358760039 428.0
41.363683895 449.0
41.368607751 475.0
41.373531607 529.0
41.378455463 508.0
41.383379319 548.0
41.388303175 644.0
41.393227031 648.0
41.398150887 655.0
41.403074743 758.0
41.407998599 772.0
41.412922455 922.0
41.417846311 888.0
41.422770167 861.0
41.427694023 976.0
41.432617879 967.0
41.437541735 948.0
41.442465591 970.0
41.447389447 957.0
41.452313303 980.0
41.457237159 906.0
41.462161015 988.0
41.467084871 918.0
41.472008727 992.0
41.476932583 971.0
41.481856439 959.0
41.486780295 978.0
41.491704151 1072.0
41.496628007 1020.0
41.501551863 1099.0
41.506475719 1202.0
41.511399575 1219.0
41.516323431 1310.0
41.521247287 1403.0
41.526171143 1621.0
41.531094999 1839.0
41.536018855 2018.0
41.540942711 2290.0
41.545866567 2627.0
41.550790423 3272.0
41.555714279 3772.0
41.560638135 4681.0
41.565561991 6183.0
41.570485847 8380.0
41.575409703 12631.0
41.580333559 20384.0
41.585257415 31089.0
41.590181271 43324.0
41.595105127 51258.0
41.600028983 56448.0
41.604952839 59898.0
41.609876695 61524.0
41.614800551 62542.0
41.619724407 63039.0
41.624648263 61934.0
41.629572119 60147.0
41.634495975 55111.0
41.639419831 45533.0
41.644343687 33003.0
41.649267543 22372.0
41.654191399 15310.0
41.659115255 11091.0
41.664039111 8564.0
41.668962967 7381.0
41.673886823 6770.0
41.678810679 7454.0
41.683734535 9036.0
41.688658391 12360.0
41.693582247 17140.0
41.698506103 22064.0
41.703429959 26293.0
41.708353815 29213.0
41.713277671 30972.0
41.718201527 31603.0
41.723125383 31670.0
41.728049239 31393.0
41.732973095 30787.0
41.737896951 29314.0
41.742820807 26613.0
41.747744663 22037.0
41.752668520 16851.0
41.757592376 11820.0
41.762516232 8054.0
41.767440088 5639.0
41.772363944 4126.0
41.777287800 3213.0
41.782211656 2549.0
41.787135512 2161.0
41.792059368 1834.0
41.796983224 1570.0
41.801907080 1415.0
41.806830936 1277.0
41.811754792 1229.0
41.816678648 1096.0
41.821602504 1014.0
41.826526360 892.0
41.831450216 930.0
41.836374072 845.0
41.841297928 833.0
41.846221784 757.0
41.851145640 704.0
41.856069496 704.0
41.860993352 683.0
41.865917208 640.0
41.870841064 644.0
41.875764920 583.0
41.880688776 597.0
41.885612632 555.0
41.890536488 533.0
41.895460344 490.0
41.900384200 491.0
41.905308056 489.0
41.910231912 488.0
41.915155768 477.0
41.920079624 449.0
41.925003480 455.0
41.929927336 446.0
41.934851192 387.0
41.939775048 418.0
41.944698904 368.0
41.949622760 426.0
41.954546616 362.0
41.959470472 403.0
41.964394328 359.0
41.969318184 369.0
41.974242040 338.0
41.979165896 357.0
41.984089752 345.0
41.989013608 363.0
41.993937464 342.0
41.998861320 338.0
42.003785176 347.0
42.008709032 324.0
42.013632888 319.0
42.018556744 309.0
42.023480600 318.0
42.028404456 321.0
42.033328312 315.0
42.038252168 292.0
42.043176024 316.0
42.048099880 309.0
42.053023736 303.0
42.057947592 303.0
42.062871448 293.0
42.067795304 231.0
42.072719160 296.0
42.077643016 282.0
42.082566872 266.0
42.087490728 272.0
42.092414584 221.0
42.097338440 257.0
42.102262296 286.0
42.107186152 260.0
42.112110008 215.0
42.117033864 224.0
42.121957720 265.0
42.126881576 224.0
42.131805432 221.0
42.136729288 217.0
42.141653144 195.0
42.146577000 188.0
42.151500856 222.0
42.156424712 222.0
42.161348568 218.0
42.166272424 215.0
42.171196280 210.0
42.176120136 212.0
42.181043992 211.0
42.185967848 207.0
42.190891704 217.0
42.195815560 207.0
42.200739416 211.0
42.205663272 198.0
42.210587128 198.0
42.215510984 199.0
42.220434840 194.0
42.225358696 202.0
42.230282552 164.0
42.235206408 191.0
42.240130264 182.0
42.245054120 194.0
42.249977977 193.0
42.254901833 174.0
42.259825689 189.0
42.264749545 176.0
42.269673401 178.0
42.274597257 160.0
42.279521113 155.0
42.284444969 173.0
42.289368825 197.0
42.294292681 172.0
42.299216537 180.0
42.304140393 165.0
42.309064249 199.0
42.313988105 193.0
42.318911961 181.0
42.323835817 180.0
42.328759673 156.0
42.333683529 168.0
42.338607385 188.0
42.343531241 188.0
42.348455097 181.0
42.353378953 182.0
42.358302809 181.0
42.363226665 185.0
42.368150521 182.0
42.373074377 166.0
42.377998233 163.0
42.382922089 167.0
42.387845945 176.0
42.392769801 172.0
42.397693657 165.0
42.402617513 159.0
42.407541369 136.0
42.412465225 194.0
42.417389081 136.0
42.422312937 148.0
42.427236793 142.0
42.432160649 147.0
42.437084505 161.0
42.442008361 180.0
42.446932217 161.0
42.451856073 153.0
42.456779929 161.0
42.461703785 138.0
42.466627641 168.0
42.471551497 140.0
42.476475353 151.0
42.481399209 150.0
42.486323065 150.0
42.491246921 166.0
42.496170777 164.0
42.501094633 166.0
42.506018489 149.0
42.510942345 153.0
42.515866201 161.0
42.520790057 148.0
42.525713913 136.0
42.530637769 158.0
42.535561625 151.0
42.540485481 153.0
42.545409337 148.0
42.550333193 148.0
42.555257049 130.0
42.560180905 155.0
42.565104761 149.0
42.570028617 127.0
42.574952473 141.0
42.579876329 162.0
42.584800185 142.0
42.589724041 153.0
42.594647897 153.0
42.599571753 148.0
42.604495609 171.0
42.609419465 134.0
42.614343321 139.0
42.619267177 143.0
42.624191033 158.0
42.629114889 139.0
42.634038745 141.0
42.638962601 163.0
42.643886457 128.0
42.648810313 131.0
42.653734169 135.0
42.658658025 137.0
42.663581881 146.0
42.668505737 130.0
42.673429593 145.0
42.678353449 150.0
42.683277305 147.0
42.688201161 141.0
42.693125017 131.0
42.698048873 133.0
42.702972729 141.0
42.707896585 149.0
42.712820441 130.0
42.717744297 144.0
42.722668153 136.0
42.727592009 144.0
42.732515865 125.0
42.737439721 148.0
42.742363577 135.0
42.747287433 140.0
42.752211290 139.0
42.757135146 133.0
42.762059002 128.0
42.766982858 137.0
42.771906714 131.0
42.776830570 153.0
42.781754426 156.0
42.786678282 153.0
42.791602138 139.0
42.796525994 139.0
42.801449850 144.0
42.806373706 136.0
42.811297562 146.0
42.816221418 133.0
42.821145274 155.0
42.826069130 130.0
42.830992986 123.0
42.835916842 134.0
42.840840698 145.0
42.845764554 124.0
42.850688410 128.0
42.855612266 151.0
42.860536122 135.0
42.865459978 143.0
42.870383834 123.0
42.875307690 144.0
42.880231546 135.0
42.885155402 137.0
42.890079258 144.0
42.895003114 132.0
42.899926970 139.0
42.904850826 157.0
42.909774682 137.0
42.914698538 133.0
42.919622394 134.0
42.924546250 145.0
42.929470106 127.0
42.934393962 147.0
42.939317818 126.0
42.944241674 124.0
42.949165530 131.0
42.954089386 133.0
42.959013242 129.0
42.963937098 145.0
42.968860954 133.0
42.973784810 147.0
42.978708666 136.0
42.983632522 137.0
42.988556378 127.0
42.993480234 147.0
42.998404090 136.0
43.003327946 131.0
43.008251802 137.0
43.013175658 138.0
43.018099514 131.0
43.023023370 164.0
43.027947226 145.0
43.032871082 138.0
43.037794938 144.0
43.042718794 140.0
43.047642650 125.0
43.052566506 131.0
43.057490362 123.0
43.062414218 140.0
43.067338074 137.0
43.072261930 155.0
43.077185786 122.0
43.082109642 149.0
43.087033498 120.0
43.091957354 126.0
43.096881210 130.0
43.101805066 128.0
43.106728922 150.0
43.111652778 137.0
43.116576634 125.0
43.121500490 146.0
43.126424346 154.0
43.131348202 138.0
43.136272058 119.0
43.141195914 129.0
43.146119770 108.0
43.151043626 143.0
43.155967482 138.0
43.160891338 119.0
43.165815194 125.0
43.170739050 123.0
43.175662906 128.0
43.180586762 135.0
43.185510618 141.0
43.190434474 135.0
43.195358330 147.0
43.200282186 131.0
43.205206042 158.0
43.210129898 127.0
43.215053754 115.0
43.219977610 123.0
43.224901466 113.0
43.229825322 138.0
43.234749178 127.0
43.239673034 126.0
43.244596890 116.0
43.249520747 146.0
43.254444603 137.0
43.259368459 130.0
43.264292315 127.0
43.269216171 130.0
43.274140027 157.0
43.279063883 136.0
43.283987739 140.0
43.288911595 134.0
43.293835451 135.0
43.298759307 125.0
43.303683163 139.0
43.308607019 135.0
43.313530875 134.0
43.318454731 142.0
43.323378587 133.0
43.328302443 127.0
43.333226299 141.0
43.338150155 149.0
43.343074011 128.0
43.347997867 141.0
43.352921723 128.0
43.357845579 125.0
43.362769435 134.0
43.367693291 122.0
43.372617147 140.0
43.377541003 133.0
43.382464859 125.0
43.387388715 146.0
43.392312571 132.0
43.397236427 141.0
43.402160283 140.0
43.407084139 154.0
43.412007995 136.0
43.416931851 140.0
43.421855707 145.0
43.426779563 120.0
43.431703419 125.0
43.436627275 128.0
43.441551131 115.0
43.446474987 109.0
43.451398843 148.0
43.456322699 144.0
43.461246555 122.0
43.466170411 137.0
43.471094267 127.0
43.476018123 141.0
43.480941979 129.0
43.485865835 148.0
43.490789691 130.0
43.495713547 125.0
43.500637403 134.0
43.505561259 130.0
43.510485115 110.0
43.515408971 143.0
43.520332827 145.0
43.525256683 132.0
43.530180539 124.0
43.535104395 141.0
43.540028251 136.0
43.544952107 124.0
43.549875963 122.0
43.554799819 135.0
43.559723675 153.0
43.564647531 150.0
43.569571387 132.0
43.574495243 128.0
43.579419099 137.0
43.584342955 151.0
43.589266811 152.0
43.594190667 145.0
43.599114523 150.0
43.604038379 152.0
43.608962235 133.0
43.613886091 134.0
43.618809947 132.0
43.623733803 121.0
43.628657659 145.0
43.633581515 113.0
43.638505371 129.0
43.643429227 131.0
43.648353083 137.0
43.653276939 150.0
43.658200795 160.0
43.663124651 140.0
43.668048507 130.0
43.672972363 148.0
43.677896219 130.0
43.682820075 145.0
43.687743931 129.0
43.692667787 147.0
43.697591643 135.0
43.702515499 132.0
43.707439355 165.0
43.712363211 155.0
43.717287067 150.0
43.722210923 159.0
43.727134779 132.0
43.732058635 149.0
43.736982491 112.0
43.741906347 125.0
43.746830203 142.0
43.751754060 130.0
43.756677916 124.0
43.761601772 144.0
43.766525628 161.0
43.771449484 166.0
43.776373340 126.0
43.781297196 139.0
43.786221052 156.0
43.791144908 129.0
43.796068764 157.0
43.800992620 144.0
43.805916476 143.0
43.810840332 147.0
43.815764188 135.0
43.820688044 149.0
43.825611900 136.0
43.830535756 131.0
43.835459612 132.0
43.840383468 143.0
43.845307324 140.0
43.850231180 139.0
43.855155036 144.0
43.860078892 136.0
43.865002748 145.0
43.869926604 146.0
43.874850460 156.0
43.879774316 153.0
43.884698172 173.0
43.889622028 151.0
43.894545884 164.0
43.899469740 142.0
43.904393596 142.0
43.909317452 144.0
43.914241308 142.0
43.919165164 145.0
43.924089020 147.0
43.929012876 158.0
43.933936732 131.0
43.938860588 143.0
43.943784444 140.0
43.948708300 133.0
43.953632156 186.0
43.958556012 151.0
43.963479868 158.0
43.968403724 166.0
43.973327580 162.0
43.978251436 138.0
43.983175292 165.0
43.988099148 141.0
43.993023004 169.0
43.997946860 155.0
44.002870716 157.0
44.007794572 156.0
44.012718428 138.0
44.017642284 165.0
44.022566140 174.0
44.027489996 165.0
44.032413852 160.0
44.037337708 138.0
44.042261564 153.0
44.047185420 164.0
44.052109276 166.0
44.057033132 164.0
44.061956988 156.0
44.066880844 152.0
44.071804700 170.0
44.076728556 179.0
44.081652412 185.0
44.086576268 181.0
44.091500124 176.0
44.096423980 163.0
44.101347836 174.0
44.106271692 168.0
44.111195548 155.0
44.116119404 172.0
44.121043260 168.0
44.125967116 186.0
44.130890972 183.0
44.135814828 164.0
44.140738684 174.0
44.145662540 173.0
44.150586396 154.0
44.155510252 182.0
44.160434108 170.0
44.165357964 185.0
44.170281820 145.0
44.175205676 196.0
44.180129532 191.0
44.185053388 176.0
44.189977244 169.0
44.194901100 172.0
44.199824956 172.0
44.204748812 183.0
44.209672668 232.0
44.214596524 194.0
44.219520380 190.0
44.224444236 197.0
44.229368092 194.0
44.234291948 190.0
44.239215804 181.0
44.244139660 210.0
44.249063517 208.0
44.253987373 205.0
44.258911229 206.0
44.263835085 236.0
44.268758941 203.0
44.273682797 237.0
44.278606653 209.0
44.283530509 234.0
44.288454365 219.0
44.293378221 269.0
44.298302077 257.0
44.303225933 256.0
44.308149789 258.0
44.313073645 245.0
44.317997501 285.0
44.322921357 257.0
44.327845213 279.0
44.332769069 269.0
44.337692925 280.0
44.342616781 275.0
44.347540637 283.0
44.352464493 297.0
44.357388349 301.0
44.362312205 297.0
44.367236061 282.0
44.372159917 269.0
44.377083773 313.0
44.382007629 293.0
44.386931485 303.0
44.391855341 303.0
44.396779197 318.0
44.401703053 311.0
44.406626909 295.0
44.411550765 284.0
44.416474621 298.0
44.421398477 289.0
44.426322333 315.0
44.431246189 290.0
44.436170045 289.0
44.441093901 310.0
44.446017757 314.0
44.450941613 275.0
44.455865469 285.0
44.460789325 262.0
44.465713181 274.0
44.470637037 277.0
44.475560893 265.0
44.480484749 290.0
44.485408605 280.0
44.490332461 241.0
44.495256317 259.0
44.500180173 257.0
44.505104029 245.0
44.510027885 265.0
44.514951741 246.0
44.519875597 291.0
44.524799453 264.0
44.529723309 249.0
44.534647165 235.0
44.539571021 255.0
44.544494877 235.0
44.549418733 239.0
44.554342589 269.0
44.559266445 199.0
44.564190301 230.0
44.569114157 233.0
44.574038013 219.0
44.578961869 234.0
44.583885725 220.0
44.588809581 208.0
44.593733437 217.0
44.598657293 191.0
44.603581149 196.0
44.608505005 207.0
44.613428861 210.0
44.618352717 190.0
44.623276573 213.0
44.628200429 176.0
44.633124285 212.0
44.638048141 197.0
44.642971997 189.0
44.647895853 189.0
44.652819709 177.0
44.657743565 165.0
44.662667421 177.0
44.667591277 174.0
44.672515133 156.0
44.677438989 179.0
44.682362845 165.0
44.687286701 174.0
44.692210557 174.0
44.697134413 169.0
44.702058269 150.0
44.706982125 137.0
44.711905981 143.0
44.716829837 178.0
44.721753693 177.0
44.726677549 159.0
44.731601405 154.0
44.736525261 158.0
44.741449117 143.0
44.746372973 137.0
44.751296830 146.0
44.756220686 145.0
44.761144542 169.0
44.766068398 151.0
44.770992254 160.0
44.775916110 139.0
44.780839966 165.0
44.785763822 145.0
44.790687678 167.0
44.795611534 150.0
44.800535390 141.0
44.805459246 156.0
44.810383102 146.0
44.815306958 140.0
44.820230814 150.0
44.825154670 161.0
44.830078526 137.0
44.835002382 142.0
44.839926238 129.0
44.844850094 125.0
44.849773950 134.0
44.854697806 126.0
44.859621662 153.0
44.864545518 147.0
44.869469374 149.0
44.874393230 152.0
44.879317086 143.0
44.884240942 161.0
44.889164798 143.0
44.894088654 147.0
44.899012510 139.0
44.903936366 148.0
44.908860222 158.0
44.913784078 118.0
44.918707934 162.0
44.923631790 123.0
44.928555646 150.0
44.933479502 133.0
44.938403358 130.0
44.943327214 153.0
44.948251070 162.0
44.953174926 130.0
44.958098782 152.0
44.963022638 137.0
44.967946494 136.0
44.972870350 129.0
44.977794206 145.0
44.982718062 128.0
44.987641918 127.0
44.992565774 130.0
44.997489630 149.0
