30.002461930 125.0
30.007385786 118.0
30.012309642 133.0
30.017233498 95.0
30.022157354 136.0
30.027081210 111.0
30.032005066 112.0
30.036928922 139.0
30.041852778 111.0
30.046776634 116.0
30.051700490 133.0
30.056624346 111.0
30.061548202 127.0
30.066472058 121.0
30.071395914 121.0
30.076319770 119.0
30.081243626 110.0
30.086167482 125.0
30.091091338 121.0
30.096015194 107.0
30.100939050 120.0
30.105862906 122.0
30.110786762 150.0
30.115710618 110.0
30.120634474 125.0
30.125558330 109.0
30.130482186 128.0
30.135406042 116.0
30.140329898 136.0
30.145253754 135.0
30.150177610 114.0
30.155101466 114.0
30.160025322 133.0
30.164949178 124.0
30.169873034 108.0
30.174796890 111.0
30.179720746 111.0
30.184644602 123.0
30.189568458 115.0
30.194492314 123.0
30.199416170 111.0
30.204340026 138.0
30.209263882 123.0
30.214187738 122.0
30.219111594 133.0
30.224035450 133.0
30.228959306 110.0
30.233883162 114.0
30.238807018 130.0
30.243730874 116.0
30.248654730 130.0
30.253578587 120.0
30.258502443 109.0
30.263426299 100.0
30.268350155 125.0
30.273274011 111.0
30.278197867 133.0
30.283121723 102.0
30.288045579 136.0
30.292969435 134.0
30.297893291 146.0
30.302817147 120.0
30.307741003 120.0
30.312664859 116.0
30.317588715 138.0
30.322512571 96.0
30.327436427 136.0
30.332360283 121.0
30.337284139 115.0
30.342207995 125.0
30.347131851 115.0
30.352055707 111.0
30.356979563 130.0
30.361903419 139.0
30.366827275 126.0
30.371751131 120.0
30.376674987 121.0
30.381598843 106.0
30.386522699 124.0
30.391446555 126.0
30.396370411 129.0
30.401294267 124.0
30.406218123 100.0
30.411141979 105.0
30.416065835 133.0
30.420989691 133.0
30.425913547 121.0
30.430837403 114.0
30.435761259 122.0
30.440685115 123.0
30.445608971 130.0
30.450532827 124.0
30.455456683 121.0
30.460380539 103.0
30.465304395 118.0
30.470228251 126.0
30.475152107 132.0
30.480075963 135.0
30.484999819 102.0
30.489923675 116.0
30.494847531 138.0
30.499771387 130.0
30.504695243 120.0
30.509619099 113.0
30.514542955 110.0
30.519466811 109.0
30.524390667 117.0
30.529314523 125.0
30.534238379 138.0
30.539162235 115.0
30.544086091 124.0
30.549009947 97.0
30.553933803 126.0
30.558857659 118.0
30.563781515 121.0
30.568705371 136.0
30.573629227 140.0
30.578553083 125.0
30.583476939 118.0
30.588400795 143.0
30.593324651 125.0
30.598248507 121.0
30.603172363 114.0
30.608096219 129.0
30.613020075 124.0
30.617943931 114.0
30.622867787 117.0
30.627791643 105.0
30.632715499 117.0
30.637639355 111.0
30.642563211 119.0
30.647487067 118.0
30.652410923 111.0
30.657334779 116.0
30.662258635 117.0
30.667182491 125.0
30.672106347 137.0
30.677030203 118.0
30.681954059 111.0
30.686877915 146.0
30.691801771 119.0
30.696725627 126.0
30.701649483 121.0
30.706573339 120.0
30.711497195 127.0
30.716421051 118.0
30.721344907 110.0
30.726268763 128.0
30.731192619 113.0
30.736116475 107.0
30.741040331 123.0
30.745964187 116.0
30.750888043 127.0
30.755811900 129.0
30.760735756 128.0
30.765659612 120.0
30.770583468 124.0
30.775507324 112.0
30.780431180 128.0
30.785355036 112.0
30.790278892 134.0
30.795202748 120.0
30.800126604 100.0
30.805050460 101.0
30.809974316 120.0
30.814898172 117.0
30.819822028 119.0
30.824745884 132.0
30.829669740 117.0
30.834593596 114.0
30.839517452 127.0
30.844441308 112.0
30.849365164 120.0
30.854289020 128.0
30.859212876 122.0
30.864136732 127.0
30.869060588 115.0
30.873984444 118.0
30.878908300 135.0
30.883832156 104.0
30.888756012 114.0
30.893679868 109.0
30.898603724 108.0
30.903527580 126.0
30.908451436 129.0
30.913375292 108.0
30.918299148 105.0
30.923223004 103.0
30.928146860 113.0
30.933070716 123.0
30.937994572 138.0
30.942918428 110.0
30.947842284 108.0
30.952766140 130.0
30.957689996 110.0
30.962613852 123.0
30.967537708 135.0
30.972461564 117.0
30.977385420 122.0
30.982309276 113.0
30.987233132 109.0
30.992156988 105.0
30.997080844 123.0
31.002004700 125.0
31.006928556 89.0
31.011852412 123.0
31.016776268 118.0
31.021700124 119.0
31.026623980 115.0
31.031547836 134.0
31.036471692 136.0
31.041395548 117.0
31.046319404 134.0
31.051243260 112.0
31.056167116 131.0
31.061090972 124.0
31.066014828 120.0
31.070938684 114.0
31.075862540 122.0
31.080786396 118.0
31.085710252 103.0
31.090634108 117.0
31.095557964 129.0
31.100481820 124.0
31.105405676 108.0
31.110329532 98.0
31.115253388 136.0
31.120177244 123.0
31.125101100 117.0
31.130024956 111.0
31.134948812 124.0
31.139872668 135.0
31.144796524 99.0
31.149720380 129.0
31.154644236 117.0
31.159568092 130.0
31.164491948 106.0
31.169415804 133.0
31.174339660 123.0
31.179263516 110.0
31.184187372 112.0
31.189111228 115.0
31.194035084 117.0
31.198958940 122.0
31.203882796 117.0
31.208806652 123.0
31.213730508 119.0
31.218654364 120.0
31.223578220 128.0
31.228502076 103.0
31.233425932 128.0
31.238349788 131.0
31.243273644 128.0
31.248197500 121.0
31.253121357 117.0
31.258045213 135.0
31.262969069 121.0
31.267892925 121.0
31.272816781 121.0
31.277740637 114.0
31.282664493 119.0
31.287588349 110.0
31.292512205 145.0
31.297436061 121.0
31.302359917 113.0
31.307283773 111.0
31.312207629 107.0
31.317131485 120.0
31.322055341 120.0
31.326979197 114.0
31.331903053 132.0
31.336826909 109.0
31.341750765 117.0
31.346674621 114.0
31.351598477 99.0
31.356522333 107.0
31.361446189 108.0
31.366370045 124.0
31.371293901 115.0
31.376217757 129.0
31.381141613 114.0
31.386065469 118.0
31.390989325 124.0
31.395913181 125.0
31.400837037 102.0
31.405760893 113.0
31.410684749 127.0
31.415608605 114.0
31.420532461 126.0
31.425456317 117.0
31.430380173 121.0
31.435304029 107.0
31.440227885 138.0
31.445151741 126.0
31.450075597 143.0
31.454999453 124.0
31.459923309 115.0
31.464847165 113.0
31.469771021 108.0
31.474694877 125.0
31.479618733 114.0
31.484542589 125.0
31.489466445 123.0
31.494390301 123.0
31.499314157 110.0
31.504238013 111.0
31.509161869 106.0
31.514085725 108.0
31.519009581 107.0
31.523933437 132.0
31.528857293 113.0
31.533781149 114.0
31.538705005 125.0
31.543628861 130.0
31.548552717 104.0
31.553476573 123.0
31.558400429 124.0
31.563324285 114.0
31.568248141 103.0
31.573171997 114.0
31.578095853 114.0
31.583019709 123.0
31.587943565 120.0
31.592867421 105.0
31.597791277 113.0
31.602715133 134.0
31.607638989 120.0
31.612562845 120.0
31.617486701 121.0
31.622410557 136.0
31.627334413 124.0
31.632258269 116.0
31.637182125 122.0
31.642105981 113.0
31.647029837 124.0
31.651953693 115.0
31.656877549 130.0
31.661801405 124.0
31.666725261 130.0
31.671649117 119.0
31.676572973 108.0
31.681496829 150.0
31.686420685 117.0
31.691344541 130.0
31.696268397 110.0
31.701192253 128.0
31.706116109 124.0
31.711039965 108.0
31.715963821 105.0
31.720887677 93.0
31.725811533 115.0
31.730735389 132.0
31.735659245 123.0
31.740583101 121.0
31.745506957 126.0
31.750430813 147.0
31.755354670 98.0
31.760278526 119.0
31.765202382 110.0
31.770126238 124.0
31.775050094 114.0
31.779973950 133.0
31.784897806 122.0
31.789821662 124.0
31.794745518 121.0
31.799669374 135.0
31.804593230 129.0
31.809517086 112.0
31.814440942 110.0
31.819364798 129.0
31.824288654 135.0
31.829212510 128.0
31.834136366 121.0
31.839060222 154.0
31.843984078 122.0
31.848907934 123.0
31.853831790 125.0
31.858755646 133.0
31.863679502 121.0
31.868603358 124.0
31.873527214 124.0
31.878451070 164.0
31.883374926 131.0
31.888298782 147.0
31.893222638 150.0
31.898146494 126.0
31.903070350 123.0
31.907994206 137.0
31.912918062 156.0
31.917841918 133.0
31.922765774 161.0
31.927689630 150.0
31.932613486 163.0
31.937537342 129.0
31.942461198 142.0
31.947385054 152.0
31.952308910 149.0
31.957232766 130.0
31.962156622 145.0
31.967080478 149.0
31.972004334 129.0
31.976928190 153.0
31.981852046 146.0
31.986775902 150.0
31.991699758 141.0
31.996623614 148.0
32.001547470 148.0
32.006471326 135.0
32.011395182 143.0
32.016319038 139.0
32.021242894 149.0
32.026166750 155.0
32.031090606 173.0
32.036014462 173.0
32.040938318 145.0
32.045862174 122.0
32.050786030 140.0
32.055709886 149.0
32.060633742 143.0
32.065557598 134.0
32.070481454 134.0
32.075405310 131.0
32.080329166 127.0
32.085253022 121.0
32.090176878 135.0
32.095100734 130.0
32.100024590 116.0
32.104948446 121.0
32.109872302 134.0
32.114796158 115.0
32.119720014 123.0
32.124643870 137.0
32.129567726 146.0
32.134491582 130.0
32.139415438 141.0
32.144339294 137.0
32.149263150 136.0
32.154187006 110.0
32.159110862 129.0
32.164034718 119.0
32.168958574 121.0
32.173882430 123.0
32.178806286 116.0
32.183730142 116.0
32.188653998 123.0
32.193577854 126.0
32.198501710 118.0
32.203425566 134.0
32.208349422 124.0
32.213273278 115.0
32.218197134 143.0
32.223120990 125.0
32.228044846 131.0
32.232968702 133.0
32.237892558 154.0
32.242816414 120.0
32.247740270 125.0
32.252664127 135.0
32.257587983 111.0
32.262511839 120.0
32.267435695 107.0
32.272359551 122.0
32.277283407 109.0
32.282207263 96.0
32.287131119 114.0
32.292054975 120.0
32.296978831 126.0
32.301902687 132.0
32.306826543 110.0
32.311750399 137.0
32.316674255 104.0
32.321598111 118.0
32.326521967 112.0
32.331445823 132.0
32.336369679 138.0
32.341293535 131.0
32.346217391 134.0
32.351141247 116.0
32.356065103 121.0
32.360988959 133.0
32.365912815 160.0
32.370836671 112.0
32.375760527 106.0
32.380684383 123.0
32.385608239 111.0
32.390532095 127.0
32.395455951 124.0
32.400379807 129.0
32.405303663 138.0
32.410227519 130.0
32.415151375 123.0
32.420075231 111.0
32.424999087 127.0
32.429922943 119.0
32.434846799 131.0
32.439770655 145.0
32.444694511 127.0
32.449618367 127.0
32.454542223 106.0
32.459466079 108.0
32.464389935 122.0
32.469313791 137.0
32.474237647 126.0
32.479161503 111.0
32.484085359 119.0
32.489009215 105.0
32.493933071 103.0
32.498856927 118.0
32.503780783 123.0
32.508704639 112.0
32.513628495 110.0
32.518552351 114.0
32.523476207 122.0
32.528400063 109.0
32.533323919 129.0
32.538247775 108.0
32.543171631 108.0
32.548095487 109.0
32.553019343 118.0
32.557943199 141.0
32.562867055 120.0
32.567790911 126.0
32.572714767 119.0
32.577638623 123.0
32.582562479 126.0
32.587486335 128.0
32.592410191 135.0
32.597334047 128.0
32.602257903 114.0
32.607181759 122.0
32.612105615 138.0
32.617029471 141.0
32.621953327 144.0
32.626877183 125.0
32.631801039 113.0
32.636724895 121.0
32.641648751 150.0
32.646572607 130.0
32.651496463 122.0
32.656420319 113.0
32.661344175 107.0
32.666268031 131.0
32.671191887 116.0
32.676115743 109.0
32.681039599 108.0
32.685963455 125.0
32.690887311 119.0
32.695811167 118.0
32.700735023 122.0
32.705658879 119.0
32.710582735 119.0
32.715506591 110.0
32.720430447 110.0
32.725354303 106.0
32.730278159 95.0
32.735202015 127.0
32.740125871 125.0
32.745049727 122.0
32.749973583 124.0
32.754897440 109.0
32.759821296 123.0
32.764745152 121.0
32.769669008 131.0
32.774592864 114.0
32.779516720 110.0
32.784440576 111.0
32.789364432 93.0
32.794288288 113.0
32.799212144 135.0
32.804136000 130.0
32.809059856 116.0
32.813983712 130.0
32.818907568 120.0
32.823831424 112.0
32.828755280 140.0
32.833679136 111.0
32.838602992 136.0
32.843526848 126.0
32.848450704 115.0
32.853374560 123.0
32.858298416 121.0
32.863222272 119.0
32.868146128 129.0
32.873069984 120.0
32.877993840 128.0
32.882917696 131.0
32.887841552 117.0
32.892765408 119.0
32.897689264 108.0
32.902613120 121.0
32.907536976 130.0
32.912460832 104.0
32.917384688 119.0
32.922308544 122.0
32.927232400 137.0
32.932156256 105.0
32.937080112 124.0
32.942003968 126.0
32.946927824 118.0
32.951851680 119.0
32.956775536 112.0
32.961699392 122.0
32.966623248 108.0
32.971547104 131.0
32.976470960 126.0
32.981394816 129.0
32.986318672 120.0
32.991242528 125.0
32.996166384 133.0
33.001090240 131.0
33.006014096 127.0
33.010937952 126.0
33.015861808 109.0
33.020785664 118.0
33.025709520 128.0
33.030633376 128.0
33.035557232 129.0
33.040481088 114.0
33.045404944 140.0
33.050328800 116.0
33.055252656 132.0
33.060176512 103.0
33.065100368 113.0
33.070024224 120.0
33.074948080 133.0
33.079871936 116.0
33.084795792 129.0
33.089719648 133.0
33.094643504 113.0
33.099567360 131.0
33.104491216 120.0
33.109415072 104.0
33.114338928 103.0
33.119262784 118.0
33.124186640 127.0
33.129110496 105.0
33.134034352 128.0
33.138958208 123.0
33.143882064 120.0
33.148805920 120.0
33.153729776 109.0
33.158653632 121.0
33.163577488 105.0
33.168501344 119.0
33.173425200 124.0
33.178349056 119.0
33.183272912 120.0
33.188196768 101.0
33.193120624 114.0
33.198044480 112.0
33.202968336 126.0
33.207892192 145.0
33.212816048 117.0
33.217739904 100.0
33.222663760 135.0
33.227587616 125.0
33.232511472 129.0
33.237435328 134.0
33.242359184 138.0
33.247283040 146.0
33.252206897 113.0
33.257130753 108.0
33.262054609 135.0
33.266978465 128.0
33.271902321 127.0
33.276826177 118.0
33.281750033 107.0
33.286673889 129.0
33.291597745 124.0
33.296521601 126.0
33.301445457 116.0
33.306369313 126.0
33.311293169 129.0
33.316217025 140.0
33.321140881 130.0
33.326064737 118.0
33.330988593 113.0
33.335912449 136.0
33.340836305 131.0
33.345760161 120.0
33.350684017 142.0
33.355607873 112.0
33.360531729 140.0
33.365455585 104.0
33.370379441 136.0
33.375303297 125.0
33.380227153 131.0
33.385151009 127.0
33.390074865 119.0
33.394998721 134.0
33.399922577 140.0
33.404846433 93.0
33.409770289 117.0
33.414694145 146.0
33.419618001 104.0
33.424541857 123.0
33.429465713 134.0
33.434389569 136.0
33.439313425 126.0
33.444237281 116.0
33.449161137 127.0
33.454084993 117.0
33.459008849 112.0
33.463932705 137.0
33.468856561 110.0
33.473780417 129.0
33.478704273 144.0
33.483628129 124.0
33.488551985 126.0
33.493475841 135.0
33.498399697 120.0
33.503323553 117.0
33.508247409 116.0
33.513171265 148.0
33.518095121 146.0
33.523018977 135.0
33.527942833 100.0
33.532866689 111.0
33.537790545 123.0
33.542714401 142.0
33.547638257 116.0
33.552562113 114.0
33.557485969 129.0
33.562409825 123.0
33.567333681 137.0
33.572257537 137.0
33.577181393 106.0
33.582105249 134.0
33.587029105 124.0
33.591952961 126.0
33.596876817 139.0
33.601800673 139.0
33.606724529 140.0
33.611648385 133.0
33.616572241 123.0
33.621496097 171.0
33.626419953 148.0
33.631343809 122.0
33.636267665 129.0
33.641191521 128.0
33.646115377 115.0
33.651039233 146.0
33.655963089 133.0
33.660886945 151.0
33.665810801 139.0
33.670734657 133.0
33.675658513 146.0
33.680582369 134.0
33.685506225 153.0
33.690430081 139.0
33.695353937 143.0
33.700277793 129.0
33.705201649 146.0
33.710125505 147.0
33.715049361 139.0
33.719973217 146.0
33.724897073 167.0
33.729820929 146.0
33.734744785 152.0
33.739668641 131.0
33.744592497 135.0
33.749516353 142.0
33.754440210 125.0
33.759364066 150.0
33.764287922 135.0
33.769211778 141.0
33.774135634 154.0
33.779059490 135.0
33.783983346 159.0
33.788907202 172.0
33.793831058 164.0
33.798754914 151.0
33.803678770 139.0
33.808602626 174.0
33.813526482 171.0
33.818450338 168.0
33.823374194 180.0
33.828298050 178.0
33.833221906 194.0
33.838145762 183.0
33.843069618 186.0
33.847993474 189.0
33.852917330 199.0
33.857841186 221.0
33.862765042 224.0
33.867688898 347.0
33.872612754 401.0
33.877536610 499.0
33.882460466 629.0
33.887384322 846.0
33.892308178 1076.0
33.897232034 1249.0
33.902155890 1461.0
33.907079746 1545.0
33.912003602 1581.0
33.916927458 1594.0
33.921851314 1621.0
33.926775170 1544.0
33.931699026 1363.0
33.936622882 1256.0
33.941546738 992.0
33.946470594 811.0
33.951394450 677.0
33.956318306 563.0
33.961242162 443.0
33.966166018 368.0
33.971089874 343.0
33.976013730 300.0
33.980937586 294.0
33.985861442 312.0
33.990785298 216.0
33.995709154 213.0
34.000633010 216.0
34.005556866 230.0
34.010480722 205.0
34.015404578 206.0
34.020328434 199.0
34.025252290 175.0
34.030176146 152.0
34.035100002 179.0
34.040023858 201.0
34.044947714 181.0
34.049871570 196.0
34.054795426 173.0
34.059719282 157.0
34.064643138 177.0
34.069566994 185.0
34.074490850 195.0
34.079414706 163.0
34.084338562 166.0
34.089262418 178.0
34.094186274 168.0
34.099110130 181.0
34.104033986 171.0
34.108957842 187.0
34.113881698 165.0
34.118805554 182.0
34.123729410 167.0
34.128653266 175.0
34.133577122 188.0
34.138500978 155.0
34.143424834 179.0
34.148348690 177.0
34.153272546 162.0
34.158196402 181.0
34.163120258 164.0
34.168044114 167.0
34.172967970 186.0
34.177891826 165.0
34.182815682 190.0
34.187739538 175.0
34.192663394 159.0
34.197587250 178.0
34.202511106 150.0
34.207434962 161.0
34.212358818 156.0
34.217282674 188.0
34.222206530 193.0
34.227130386 189.0
34.232054242 163.0
34.236978098 165.0
34.241901954 185.0
34.246825810 176.0
34.251749667 182.0
34.256673523 198.0
34.261597379 182.0
34.266521235 164.0
34.271445091 173.0
34.276368947 184.0
34.281292803 148.0
34.286216659 152.0
34.291140515 166.0
34.296064371 184.0
34.300988227 151.0
34.305912083 165.0
34.310835939 174.0
34.315759795 159.0
34.320683651 191.0
34.325607507 184.0
34.330531363 186.0
34.335455219 160.0
34.340379075 175.0
34.345302931 174.0
34.350226787 170.0
34.355150643 154.0
34.360074499 145.0
34.364998355 161.0
34.369922211 190.0
34.374846067 177.0
34.379769923 173.0
34.384693779 172.0
34.389617635 175.0
34.394541491 178.0
34.399465347 192.0
34.404389203 174.0
34.409313059 160.0
34.414236915 161.0
34.419160771 177.0
34.424084627 177.0
34.429008483 165.0
34.433932339 188.0
34.438856195 177.0
34.443780051 189.0
34.448703907 186.0
34.453627763 186.0
34.458551619 167.0
34.463475475 178.0
34.468399331 205.0
34.473323187 186.0
34.478247043 193.0
34.483170899 195.0
34.488094755 196.0
34.493018611 200.0
34.497942467 194.0
34.502866323 200.0
34.507790179 187.0
34.512714035 189.0
34.517637891 187.0
34.522561747 217.0
34.527485603 191.0
34.532409459 169.0
34.537333315 219.0
34.542257171 195.0
34.547181027 177.0
34.552104883 211.0
34.557028739 196.0
34.561952595 193.0
34.566876451 200.0
34.571800307 215.0
34.576724163 188.0
34.581648019 164.0
34.586571875 205.0
34.591495731 195.0
34.596419587 231.0
34.601343443 195.0
34.606267299 205.0
34.611191155 200.0
34.616115011 218.0
34.621038867 202.0
34.625962723 227.0
34.630886579 219.0
34.635810435 197.0
34.640734291 201.0
34.645658147 199.0
34.650582003 216.0
34.655505859 213.0
34.660429715 214.0
34.665353571 206.0
34.670277427 206.0
34.675201283 275.0
34.680125139 221.0
34.685048995 227.0
34.689972851 235.0
34.694896707 205.0
34.699820563 223.0
34.704744419 192.0
34.709668275 243.0
34.714592131 237.0
34.719515987 243.0
34.724439843 228.0
34.729363699 237.0
34.734287555 290.0
34.739211411 211.0
34.744135267 223.0
34.749059123 239.0
34.753982980 263.0
34.758906836 261.0
34.763830692 238.0
34.768754548 205.0
34.773678404 261.0
34.778602260 293.0
34.783526116 268.0
34.788449972 255.0
34.793373828 264.0
34.798297684 292.0
34.803221540 261.0
34.808145396 234.0
34.813069252 271.0
34.817993108 258.0
34.822916964 233.0
34.827840820 242.0
34.832764676 276.0
34.837688532 279.0
34.842612388 288.0
34.847536244 262.0
34.852460100 273.0
34.857383956 291.0
34.862307812 288.0
34.867231668 280.0
34.872155524 303.0
34.877079380 255.0
34.882003236 263.0
34.886927092 295.0
34.891850948 288.0
34.896774804 279.0
34.901698660 295.0
34.906622516 305.0
34.911546372 323.0
34.916470228 296.0
34.921394084 290.0
34.926317940 342.0
34.931241796 318.0
34.936165652 316.0
34.941089508 318.0
34.946013364 322.0
34.950937220 316.0
34.955861076 367.0
34.960784932 361.0
34.965708788 359.0
34.970632644 341.0
34.975556500 336.0
34.980480356 321.0
34.985404212 288.0
34.990328068 343.0
34.995251924 386.0
35.000175780 408.0
35.005099636 381.0
35.010023492 330.0
35.014947348 399.0
35.019871204 375.0
35.024795060 353.0
35.029718916 407.0
35.034642772 393.0
35.039566628 403.0
35.044490484 430.0
35.049414340 406.0
35.054338196 381.0
35.059262052 451.0
35.064185908 440.0
35.069109764 422.0
35.074033620 447.0
35.078957476 464.0
35.083881332 438.0
35.088805188 457.0
35.093729044 461.0
35.098652900 472.0
35.103576756 467.0
35.108500612 460.0
35.113424468 484.0
35.118348324 493.0
35.123272180 503.0
35.128196036 523.0
35.133119892 489.0
35.138043748 517.0
35.142967604 531.0
35.147891460 522.0
35.152815316 516.0
35.157739172 595.0
35.162663028 613.0
35.167586884 586.0
35.172510740 636.0
35.177434596 588.0
35.182358452 627.0
35.187282308 622.0
35.192206164 665.0
35.197130020 662.0
35.202053876 705.0
35.206977732 672.0
35.211901588 720.0
35.216825444 795.0
35.221749300 781.0
35.226673156 787.0
35.231597012 819.0
35.236520868 847.0
35.241444724 824.0
35.246368580 920.0
35.251292437 928.0
35.256216293 899.0
35.261140149 1019.0
35.266064005 995.0
35.270987861 1037.0
35.275911717 1128.0
35.280835573 1276.0
35.285759429 1149.0
35.290683285 1270.0
35.295607141 1308.0
35.300530997 1351.0
35.305454853 1327.0
35.310378709 1454.0
35.315302565 1557.0
35.320226421 1650.0
35.325150277 1763.0
35.330074133 1703.0
35.334997989 1837.0
35.339921845 1994.0
35.344845701 2078.0
35.349769557 2189.0
35.354693413 2373.0
35.359617269 2324.0
35.364541125 2619.0
35.369464981 2791.0
35.374388837 2935.0
35.379312693 3046.0
35.384236549 3239.0
35.389160405 3511.0
35.394084261 3753.0
35.399008117 3988.0
35.403931973 4259.0
35.408855829 4513.0
35.413779685 4763.0
35.418703541 5190.0
35.423627397 5434.0
35.428551253 5930.0
35.433475109 5922.0
35.438398965 6452.0
35.443322821 6698.0
35.448246677 7048.0
35.453170533 7416.0
35.458094389 7781.0
35.463018245 8008.0
35.467942101 8345.0
35.472865957 8563.0
35.477789813 8687.0
35.482713669 9041.0
35.487637525 9090.0
35.492561381 9241.0
35.497485237 9390.0
35.502409093 9635.0
35.507332949 9791.0
35.512256805 9803.0
35.517180661 9782.0
35.522104517 9653.0
35.527028373 9737.0
35.531952229 9935.0
35.536876085 9695.0
35.541799941 9551.0
35.546723797 9594.0
35.551647653 9499.0
35.556571509 9295.0
35.561495365 9042.0
35.566419221 8777.0
35.571343077 8729.0
35.576266933 8480.0
35.581190789 8075.0
35.586114645 7841.0
35.591038501 7706.0
35.595962357 7618.0
35.600886213 7300.0
35.605810069 6927.0
35.610733925 6836.0
35.615657781 6460.0
35.620581637 6310.0
35.625505493 6192.0
35.630429349 5862.0
35.635353205 5566.0
35.640277061 5279.0
35.645200917 5078.0
35.650124773 4966.0
35.655048629 4605.0
35.659972485 4470.0
35.664896341 4263.0
35.669820197 3996.0
35.674744053 3908.0
35.679667909 3657.0
35.684591765 3343.0
35.689515621 3316.0
35.694439477 3132.0
35.699363333 2983.0
35.704287189 2895.0
35.709211045 2662.0
35.714134901 2538.0
35.719058757 2532.0
35.723982613 2339.0
35.728906469 2303.0
35.733830325 2201.0
35.738754181 2172.0
35.743678037 2067.0
35.748601893 1958.0
35.753525750 1830.0
35.758449606 1773.0
35.763373462 1805.0
35.768297318 1720.0
35.773221174 1671.0
35.778145030 1689.0
35.783068886 1579.0
35.787992742 1526.0
35.792916598 1454.0
35.797840454 1465.0
35.802764310 1417.0
35.807688166 1338.0
35.812612022 1342.0
35.817535878 1298.0
35.822459734 1288.0
35.827383590 1272.0
35.832307446 1201.0
35.837231302 1223.0
35.842155158 1166.0
35.847079014 1160.0
35.852002870 1072.0
35.856926726 1109.0
35.861850582 1077.0
35.866774438 1006.0
35.871698294 994.0
35.876622150 996.0
35.881546006 974.0
35.886469862 954.0
35.891393718 922.0
35.896317574 924.0
35.901241430 883.0
35.906165286 949.0
35.911089142 907.0
35.916012998 816.0
35.920936854 818.0
35.925860710 827.0
35.930784566 874.0
35.935708422 810.0
35.940632278 807.0
35.945556134 774.0
35.950479990 756.0
35.955403846 733.0
35.960327702 691.0
35.965251558 736.0
35.970175414 735.0
35.975099270 699.0
35.980023126 726.0
35.984946982 708.0
35.989870838 688.0
35.994794694 664.0
35.999718550 715.0
36.004642406 634.0
36.009566262 649.0
36.014490118 615.0
36.019413974 633.0
36.024337830 636.0
36.029261686 610.0
36.034185542 606.0
36.039109398 613.0
36.044033254 626.0
36.048957110 578.0
36.053880966 629.0
36.058804822 590.0
36.063728678 623.0
36.068652534 583.0
36.073576390 570.0
36.078500246 555.0
36.083424102 577.0
36.088347958 537.0
36.093271814 514.0
36.098195670 496.0
36.103119526 529.0
36.108043382 527.0
36.112967238 495.0
36.117891094 488.0
36.122814950 483.0
36.127738806 484.0
36.132662662 483.0
36.137586518 484.0
36.142510374 475.0
36.147434230 447.0
36.152358086 461.0
36.157281942 465.0
36.162205798 442.0
36.167129654 481.0
36.172053510 409.0
36.176977366 431.0
36.181901222 418.0
36.186825078 418.0
36.191748934 419.0
36.196672790 447.0
36.201596646 421.0
36.206520502 477.0
36.211444358 466.0
36.216368214 391.0
36.221292070 413.0
36.226215926 432.0
36.231139782 397.0
36.236063638 410.0
36.240987494 400.0
36.245911350 372.0
36.250835207 424.0
36.255759063 401.0
36.260682919 407.0
36.265606775 394.0
36.270530631 362.0
36.275454487 362.0
36.280378343 366.0
36.285302199 391.0
36.290226055 380.0
36.295149911 419.0
36.300073767 359.0
36.304997623 404.0
36.309921479 370.0
36.314845335 359.0
36.319769191 358.0
36.324693047 352.0
36.329616903 411.0
36.334540759 341.0
36.339464615 381.0
36.344388471 366.0
36.349312327 368.0
36.354236183 328.0
36.359160039 367.0
36.364083895 349.0
36.369007751 350.0
36.373931607 363.0
36.378855463 370.0
36.383779319 329.0
36.388703175 369.0
36.393627031 352.0
36.398550887 325.0
36.403474743 368.0
36.408398599 309.0
36.413322455 361.0
36.418246311 335.0
36.423170167 333.0
36.428094023 346.0
36.433017879 313.0
36.437941735 332.0
36.442865591 320.0
36.447789447 323.0
36.452713303 334.0
36.457637159 326.0
36.462561015 326.0
36.467484871 314.0
36.472408727 332.0
36.477332583 317.0
36.482256439 316.0
36.487180295 353.0
36.492104151 315.0
36.497028007 315.0
36.501951863 317.0
36.506875719 321.0
36.511799575 332.0
36.516723431 321.0
36.521647287 316.0
36.526571143 310.0
36.531494999 348.0
36.536418855 332.0
36.541342711 320.0
36.546266567 320.0
36.551190423 333.0
36.556114279 330.0
36.561038135 320.0
36.565961991 337.0
36.570885847 318.0
36.575809703 373.0
36.580733559 315.0
36.585657415 309.0
36.590581271 330.0
36.595505127 353.0
36.600428983 326.0
36.605352839 290.0
36.610276695 351.0
36.615200551 317.0
36.620124407 355.0
36.625048263 324.0
36.629972119 355.0
36.634895975 361.0
36.639819831 340.0
36.644743687 329.0
36.649667543 332.0
36.654591399 351.0
36.659515255 314.0
36.664439111 325.0
36.669362967 359.0
36.674286823 371.0
36.679210679 343.0
36.684134535 377.0
36.689058391 327.0
36.693982247 371.0
36.698906103 353.0
36.703829959 373.0
36.708753815 350.0
36.713677671 347.0
36.718601527 369.0
36.723525383 359.0
36.728449239 349.0
36.733373095 340.0
36.738296951 390.0
36.743220807 379.0
36.748144663 404.0
36.753068520 365.0
36.757992376 369.0
36.762916232 353.0
36.767840088 402.0
36.772763944 352.0
36.777687800 414.0
36.782611656 371.0
36.787535512 399.0
36.792459368 395.0
36.797383224 452.0
36.802307080 378.0
36.807230936 404.0
36.812154792 355.0
36.817078648 420.0
36.822002504 385.0
36.826926360 403.0
36.831850216 383.0
36.836774072 392.0
36.841697928 409.0
36.846621784 413.0
36.851545640 366.0
36.856469496 427.0
36.861393352 420.0
36.866317208 419.0
36.871241064 406.0
36.876164920 419.0
36.881088776 440.0
36.886012632 448.0
36.890936488 434.0
36.895860344 450.0
36.900784200 494.0
36.905708056 448.0
36.910631912 498.0
36.915555768 483.0
36.920479624 480.0
36.925403480 446.0
36.930327336 494.0
36.935251192 483.0
36.940175048 512.0
36.945098904 514.0
36.950022760 504.0
36.954946616 505.0
36.959870472 512.0
36.964794328 488.0
36.969718184 466.0
36.974642040 473.0
36.979565896 492.0
36.984489752 517.0
36.989413608 507.0
36.994337464 516.0
36.999261320 531.0
37.004185176 505.0
37.009109032 547.0
37.014032888 539.0
37.018956744 537.0
37.023880600 542.0
37.028804456 518.0
37.033728312 544.0
37.038652168 508.0
37.043576024 595.0
37.048499880 529.0
37.053423736 580.0
37.058347592 560.0
37.063271448 572.0
37.068195304 556.0
37.073119160 557.0
37.078043016 595.0
37.082966872 586.0
37.087890728 574.0
37.092814584 590.0
37.097738440 590.0
37.102662296 638.0
37.107586152 597.0
37.112510008 580.0
37.117433864 666.0
37.122357720 627.0
37.127281576 662.0
37.132205432 627.0
37.137129288 641.0
37.142053144 645.0
37.146977000 639.0
37.151900856 687.0
37.156824712 628.0
37.161748568 656.0
37.166672424 648.0
37.171596280 695.0
37.176520136 651.0
37.181443992 688.0
37.186367848 685.0
37.191291704 679.0
37.196215560 723.0
37.201139416 725.0
37.206063272 749.0
37.210987128 656.0
37.215910984 702.0
37.220834840 726.0
37.225758696 779.0
37.230682552 794.0
37.235606408 834.0
37.240530264 792.0
37.245454120 831.0
37.250377977 791.0
37.255301833 845.0
37.260225689 846.0
37.265149545 892.0
37.270073401 873.0
37.274997257 882.0
37.279921113 843.0
37.284844969 943.0
37.289768825 900.0
37.294692681 960.0
37.299616537 957.0
37.304540393 953.0
37.309464249 941.0
37.314388105 1015.0
37.319311961 1008.0
37.324235817 1015.0
37.329159673 1003.0
37.334083529 1050.0
37.339007385 1064.0
37.343931241 1107.0
37.348855097 1166.0
37.353778953 1135.0
37.358702809 1188.0
37.363626665 1174.0
37.368550521 1162.0
37.373474377 1186.0
37.378398233 1271.0
37.383322089 1277.0
37.388245945 1342.0
37.393169801 1287.0
37.398093657 1383.0
37.403017513 1374.0
37.407941369 1443.0
37.412865225 1385.0
37.417789081 1454.0
37.422712937 1555.0
37.427636793 1542.0
37.432560649 1801.0
37.437484505 1816.0
37.442408361 1971.0
37.447332217 2015.0
37.452256073 2201.0
37.457179929 2402.0
37.462103785 2616.0
37.467027641 2827.0
37.471951497 3039.0
37.476875353 3492.0
37.481799209 3625.0
37.486723065 3824.0
37.491646921 4149.0
37.496570777 4388.0
37.501494633 4727.0
37.506418489 4754.0
37.511342345 4850.0
37.516266201 5079.0
37.521190057 4883.0
37.526113913 4916.0
37.531037769 5003.0
37.535961625 5072.0
37.540885481 5009.0
37.545809337 5021.0
37.550733193 5049.0
37.555657049 5312.0
37.560580905 5342.0
37.565504761 5680.0
37.570428617 5720.0
37.575352473 6315.0
37.580276329 6965.0
37.585200185 7443.0
37.590124041 8596.0
37.595047897 9487.0
37.599971753 10914.0
37.604895609 12420.0
37.609819465 15223.0
37.614743321 17728.0
37.619667177 23171.0
37.624591033 28011.0
37.629514889 42480.0
37.634438745 55952.0
37.639362601 102378.0
37.644286457 149644.0
37.649210313 225021.0
37.654134169 286942.0
37.659058025 319486.0
37.663981881 348194.0
37.668905737 354020.0
37.673829593 362261.0
37.678753449 353299.0
37.683677305 353044.0
37.688601161 311167.0
37.693525017 275059.0
37.698448873 193262.0
37.703372729 128080.0
37.708296585 90034.0
37.713220441 58199.0
37.718144297 48275.0
37.723068153 41233.0
37.727992009 41313.0
37.732915865 53268.0
37.737839721 64213.0
37.742763577 98638.0
37.747687433 127076.0
37.752611290 150741.0
37.757535146 173142.0
37.762459002 178956.0
37.767382858 187742.0
37.772306714 183049.0
37.777230570 184640.0
37.782154426 170086.0
37.787078282 161971.0
37.792002138 125401.0
37.796925994 95696.0
37.801849850 67152.0
37.806773706 40624.0
37.811697562 31739.0
37.816621418 20145.0
37.821545274 17216.0
37.826469130 12728.0
37.831392986 11203.0
37.836316842 9121.0
37.841240698 8137.0
37.846164554 7413.0
37.851088410 6407.0
37.856012266 6099.0
37.860936122 5464.0
37.865859978 5164.0
37.870783834 4732.0
37.875707690 4390.0
37.880631546 4199.0
37.885555402 3834.0
37.890479258 3777.0
37.895403114 3441.0
37.900326970 3469.0
37.905250826 3110.0
37.910174682 3027.0
37.915098538 2879.0
37.920022394 2803.0
37.924946250 2646.0
37.929870106 2476.0
37.934793962 2520.0
37.939717818 2239.0
37.944641674 2449.0
37.949565530 2175.0
37.954489386 2251.0
37.959413242 1999.0
37.964337098 1997.0
37.969260954 1976.0
37.974184810 1912.0
37.979108666 1853.0
37.984032522 1774.0
37.988956378 1805.0
37.993880234 1720.0
37.998804090 1667.0
38.003727946 1699.0
38.008651802 1574.0
38.013575658 1537.0
38.018499514 1545.0
38.023423370 1542.0
38.028347226 1468.0
38.033271082 1514.0
38.038194938 1408.0
38.043118794 1330.0
38.048042650 1387.0
38.052966506 1362.0
38.057890362 1360.0
38.062814218 1252.0
38.067738074 1325.0
38.072661930 1213.0
38.077585786 1268.0
38.082509642 1167.0
38.087433498 1232.0
38.092357354 1154.0
38.097281210 1174.0
38.102205066 1091.0
38.107128922 1144.0
38.112052778 1086.0
38.116976634 1019.0
38.121900490 1072.0
38.126824346 1027.0
38.131748202 1067.0
38.136672058 1094.0
38.141595914 951.0
38.146519770 1050.0
38.151443626 1025.0
38.156367482 877.0
38.161291338 891.0
38.166215194 878.0
38.171139050 936.0
38.176062906 900.0
38.180986762 892.0
38.185910618 858.0
38.190834474 869.0
38.195758330 857.0
38.200682186 861.0
38.205606042 844.0
38.210529898 819.0
38.215453754 771.0
38.220377610 799.0
38.225301466 724.0
38.230225322 731.0
38.235149178 707.0
38.240073034 729.0
38.244996890 774.0
38.249920747 714.0
38.254844603 688.0
38.259768459 755.0
38.264692315 695.0
38.269616171 697.0
38.274540027 675.0
38.279463883 654.0
38.284387739 650.0
38.289311595 653.0
38.294235451 627.0
38.299159307 712.0
38.304083163 639.0
38.309007019 591.0
38.313930875 615.0
38.318854731 622.0
38.323778587 610.0
38.328702443 601.0
38.333626299 619.0
38.338550155 564.0
38.343474011 585.0
38.348397867 557.0
38.353321723 528.0
38.358245579 583.0
38.363169435 553.0
38.368093291 525.0
38.373017147 513.0
38.377941003 491.0
38.382864859 483.0
38.387788715 530.0
38.392712571 516.0
38.397636427 481.0
38.402560283 494.0
38.407484139 530.0
38.412407995 505.0
38.417331851 470.0
38.422255707 457.0
38.427179563 473.0
38.432103419 438.0
38.437027275 438.0
38.441951131 426.0
38.446874987 429.0
38.451798843 445.0
38.456722699 464.0
38.461646555 407.0
38.466570411 437.0
38.471494267 421.0
38.476418123 405.0
38.481341979 395.0
38.486265835 384.0
38.491189691 402.0
38.496113547 410.0
38.501037403 356.0
38.505961259 337.0
38.510885115 365.0
38.515808971 392.0
38.520732827 372.0
38.525656683 363.0
38.530580539 376.0
38.535504395 342.0
38.540428251 337.0
38.545352107 356.0
38.550275963 315.0
38.555199819 361.0
38.560123675 318.0
38.565047531 365.0
38.569971387 286.0
38.574895243 337.0
38.579819099 331.0
38.584742955 325.0
38.589666811 326.0
38.594590667 309.0
38.599514523 298.0
38.604438379 314.0
38.609362235 337.0
38.614286091 309.0
38.619209947 276.0
38.624133803 264.0
38.629057659 294.0
38.633981515 293.0
38.638905371 308.0
38.643829227 295.0
38.648753083 261.0
38.653676939 229.0
38.658600795 268.0
38.663524651 276.0
38.668448507 224.0
38.673372363 279.0
38.678296219 301.0
38.683220075 221.0
38.688143931 261.0
38.693067787 303.0
38.697991643 262.0
38.702915499 228.0
38.707839355 189.0
38.712763211 279.0
38.717687067 201.0
38.722610923 279.0
38.727534779 257.0
38.732458635 235.0
38.737382491 204.0
38.742306347 205.0
38.747230203 231.0
38.752154060 214.0
38.757077916 221.0
38.762001772 269.0
38.766925628 216.0
38.771849484 262.0
38.776773340 201.0
38.781697196 189.0
38.786621052 204.0
38.791544908 190.0
38.796468764 211.0
38.801392620 213.0
38.806316476 206.0
38.811240332 208.0
38.816164188 204.0
38.821088044 202.0
38.826011900 229.0
38.830935756 200.0
38.835859612 190.0
38.840783468 208.0
38.845707324 199.0
38.850631180 192.0
38.855555036 198.0
38.860478892 197.0
38.865402748 189.0
38.870326604 192.0
38.875250460 195.0
38.880174316 174.0
38.885098172 207.0
38.890022028 200.0
38.894945884 193.0
38.899869740 190.0
38.904793596 180.0
38.909717452 183.0
38.914641308 201.0
38.919565164 184.0
38.924489020 194.0
38.929412876 177.0
38.934336732 186.0
38.939260588 170.0
38.944184444 168.0
38.949108300 186.0
38.954032156 178.0
38.958956012 164.0
38.963879868 219.0
38.968803724 192.0
38.973727580 165.0
38.978651436 156.0
38.983575292 172.0
38.988499148 176.0
38.993423004 177.0
38.998346860 179.0
39.003270716 163.0
39.008194572 178.0
39.013118428 184.0
39.018042284 167.0
39.022966140 184.0
39.027889996 183.0
39.032813852 166.0
39.037737708 172.0
39.042661564 176.0
39.047585420 163.0
39.052509276 185.0
39.057433132 168.0
39.062356988 172.0
39.067280844 158.0
39.072204700 161.0
39.077128556 176.0
39.082052412 164.0
39.086976268 159.0
39.091900124 157.0
39.096823980 174.0
39.101747836 165.0
39.106671692 156.0
39.111595548 173.0
39.116519404 183.0
39.121443260 178.0
39.126367116 168.0
39.131290972 145.0
39.136214828 159.0
39.141138684 178.0
39.146062540 180.0
39.150986396 169.0
39.155910252 177.0
39.160834108 164.0
39.165757964 164.0
39.170681820 170.0
39.175605676 124.0
39.180529532 170.0
39.185453388 147.0
39.190377244 139.0
39.195301100 158.0
39.200224956 170.0
39.205148812 133.0
39.210072668 160.0
39.214996524 140.0
39.219920380 162.0
39.224844236 157.0
39.229768092 160.0
39.234691948 132.0
39.239615804 147.0
39.244539660 150.0
39.249463517 130.0
39.254387373 161.0
39.259311229 154.0
39.264235085 171.0
39.269158941 161.0
39.274082797 144.0
39.279006653 159.0
39.283930509 127.0
39.288854365 119.0
39.293778221 179.0
39.298702077 165.0
39.303625933 153.0
39.308549789 144.0
39.313473645 131.0
39.318397501 142.0
39.323321357 162.0
39.328245213 154.0
39.333169069 160.0
39.338092925 162.0
39.343016781 139.0
39.347940637 144.0
39.352864493 140.0
39.357788349 138.0
39.362712205 134.0
39.367636061 133.0
39.372559917 146.0
39.377483773 144.0
39.382407629 158.0
39.387331485 152.0
39.392255341 148.0
39.397179197 140.0
39.402103053 139.0
39.407026909 153.0
39.411950765 141.0
39.416874621 130.0
39.421798477 164.0
39.426722333 139.0
39.431646189 149.0
39.436570045 138.0
39.441493901 146.0
39.446417757 152.0
39.451341613 125.0
39.456265469 154.0
39.461189325 136.0
39.466113181 152.0
39.471037037 159.0
39.475960893 142.0
39.480884749 154.0
39.485808605 151.0
39.490732461 129.0
39.495656317 152.0
39.500580173 132.0
39.505504029 136.0
39.510427885 154.0
39.515351741 130.0
39.520275597 126.0
39.525199453 156.0
39.530123309 146.0
39.535047165 141.0
39.539971021 134.0
39.544894877 122.0
39.549818733 153.0
39.554742589 151.0
39.559666445 141.0
39.564590301 129.0
39.569514157 131.0
39.574438013 117.0
39.579361869 136.0
39.584285725 138.0
39.589209581 141.0
39.594133437 128.0
39.599057293 121.0
39.603981149 138.0
39.608905005 145.0
39.613828861 132.0
39.618752717 139.0
39.623676573 133.0
39.628600429 123.0
39.633524285 115.0
39.638448141 134.0
39.643371997 136.0
39.648295853 132.0
39.653219709 122.0
39.658143565 156.0
39.663067421 127.0
39.667991277 139.0
39.672915133 143.0
39.677838989 136.0
39.682762845 122.0
39.687686701 129.0
39.692610557 131.0
39.697534413 134.0
39.702458269 111.0
39.707382125 135.0
39.712305981 120.0
39.717229837 133.0
39.722153693 148.0
39.727077549 152.0
39.732001405 136.0
39.736925261 132.0
39.741849117 133.0
39.746772973 131.0
39.751696830 125.0
39.756620686 142.0
39.761544542 118.0
39.766468398 146.0
39.771392254 119.0
39.776316110 134.0
39.781239966 132.0
39.786163822 148.0
39.791087678 159.0
39.796011534 149.0
39.800935390 138.0
39.805859246 119.0
39.810783102 123.0
39.815706958 163.0
39.820630814 125.0
39.825554670 135.0
39.830478526 135.0
39.835402382 124.0
39.840326238 132.0
39.845250094 111.0
39.850173950 136.0
39.855097806 122.0
39.860021662 143.0
39.864945518 109.0
39.869869374 127.0
39.874793230 126.0
39.879717086 125.0
39.884640942 129.0
39.889564798 122.0
39.894488654 115.0
39.899412510 137.0
39.904336366 121.0
39.909260222 128.0
39.914184078 150.0
39.919107934 124.0
39.924031790 135.0
39.928955646 128.0
39.933879502 140.0
39.938803358 153.0
39.943727214 125.0
39.948651070 111.0
39.953574926 140.0
39.958498782 109.0
39.963422638 127.0
39.968346494 118.0
39.973270350 135.0
39.978194206 134.0
39.983118062 110.0
39.988041918 122.0
39.992965774 138.0
39.997889630 135.0
