35.002061930 115.0
35.006985786 119.0
35.011909642 98.0
35.016833498 114.0
35.021757354 135.0
35.026681210 125.0
35.031605066 122.0
35.036528922 113.0
35.041452778 121.0
35.046376634 115.0
35.051300490 114.0
35.056224346 128.0
35.061148202 120.0
35.066072058 119.0
35.070995914 141.0
35.075919770 126.0
35.080843626 122.0
35.085767482 112.0
35.090691338 128.0
35.095615194 121.0
35.100539050 120.0
35.105462906 114.0
35.110386762 122.0
35.115310618 110.0
35.120234474 117.0
35.125158330 115.0
35.130082186 117.0
35.135006042 103.0
35.139929898 122.0
35.144853754 124.0
35.149777610 107.0
35.154701466 118.0
35.159625322 106.0
35.164549178 100.0
35.169473034 112.0
35.174396890 130.0
35.179320746 129.0
35.184244602 117.0
35.189168458 108.0
35.194092314 128.0
35.199016170 128.0
35.203940026 110.0
35.208863882 108.0
35.213787738 114.0
35.218711594 115.0
35.223635450 118.0
35.228559306 107.0
35.233483162 109.0
35.238407018 119.0
35.243330874 127.0
35.248254730 122.0
35.253178587 128.0
35.258102443 128.0
35.263026299 125.0
35.267950155 106.0
35.272874011 146.0
35.277797867 116.0
35.282721723 131.0
35.287645579 114.0
35.292569435 119.0
35.297493291 100.0
35.302417147 129.0
35.307341003 114.0
35.312264859 117.0
35.317188715 109.0
35.322112571 128.0
35.327036427 127.0
35.331960283 105.0
35.336884139 112.0
35.341807995 133.0
35.346731851 141.0
35.351655707 128.0
35.356579563 139.0
35.361503419 111.0
35.366427275 134.0
35.371351131 127.0
35.376274987 113.0
35.381198843 114.0
35.386122699 123.0
35.391046555 126.0
35.395970411 110.0
35.400894267 127.0
35.405818123 109.0
35.410741979 116.0
35.415665835 131.0
35.420589691 124.0
35.425513547 127.0
35.430437403 119.0
35.435361259 129.0
35.440285115 115.0
35.445208971 116.0
35.450132827 121.0
35.455056683 123.0
35.459980539 122.0
35.464904395 129.0
35.469828251 142.0
35.474752107 134.0
35.479675963 122.0
35.484599819 104.0
35.489523675 130.0
35.494447531 129.0
35.499371387 134.0
35.504295243 136.0
35.509219099 132.0
35.514142955 120.0
35.519066811 123.0
35.523990667 131.0
35.528914523 139.0
35.533838379 122.0
35.538762235 134.0
35.543686091 127.0
35.548609947 133.0
35.553533803 123.0
35.558457659 121.0
35.563381515 142.0
35.568305371 126.0
35.573229227 118.0
35.578153083 135.0
35.583076939 96.0
35.588000795 136.0
35.592924651 129.0
35.597848507 115.0
35.602772363 125.0
35.607696219 140.0
35.612620075 124.0
35.617543931 147.0
35.622467787 125.0
35.627391643 111.0
35.632315499 123.0
35.637239355 114.0
35.642163211 126.0
35.647087067 131.0
35.652010923 120.0
35.656934779 108.0
35.661858635 126.0
35.666782491 121.0
35.671706347 123.0
35.676630203 101.0
35.681554059 133.0
35.686477915 139.0
35.691401771 119.0
35.696325627 126.0
35.701249483 124.0
35.706173339 124.0
35.711097195 99.0
35.716021051 140.0
35.720944907 97.0
35.725868763 119.0
35.730792619 137.0
35.735716475 120.0
35.740640331 118.0
35.745564187 115.0
35.750488043 130.0
35.755411900 119.0
35.760335756 105.0
35.765259612 126.0
35.770183468 111.0
35.775107324 112.0
35.780031180 114.0
35.784955036 137.0
35.789878892 122.0
35.794802748 132.0
35.799726604 101.0
35.804650460 119.0
35.809574316 118.0
35.814498172 123.0
35.819422028 135.0
35.824345884 131.0
35.829269740 119.0
35.834193596 112.0
35.839117452 125.0
35.844041308 136.0
35.848965164 132.0
35.853889020 120.0
35.858812876 124.0
35.863736732 122.0
35.868660588 116.0
35.873584444 113.0
35.878508300 100.0
35.883432156 106.0
35.888356012 127.0
35.893279868 115.0
35.898203724 133.0
35.903127580 124.0
35.908051436 103.0
35.912975292 117.0
35.917899148 131.0
35.922823004 133.0
35.927746860 111.0
35.932670716 118.0
35.937594572 117.0
35.942518428 139.0
35.947442284 121.0
35.952366140 117.0
35.957289996 104.0
35.962213852 124.0
35.967137708 136.0
35.972061564 140.0
35.976985420 96.0
35.981909276 118.0
35.986833132 135.0
35.991756988 126.0
35.996680844 114.0
36.001604700 142.0
36.006528556 103.0
36.011452412 125.0
36.016376268 134.0
36.021300124 138.0
36.026223980 123.0
36.031147836 126.0
36.036071692 126.0
36.040995548 140.0
36.045919404 134.0
36.050843260 137.0
36.055767116 114.0
36.060690972 103.0
36.065614828 124.0
36.070538684 122.0
36.075462540 131.0
36.080386396 140.0
36.085310252 118.0
36.090234108 99.0
36.095157964 120.0
36.100081820 116.0
36.105005676 128.0
36.109929532 117.0
36.114853388 116.0
36.119777244 106.0
36.124701100 96.0
36.129624956 111.0
36.134548812 117.0
36.139472668 128.0
36.144396524 137.0
36.149320380 117.0
36.154244236 127.0
36.159168092 109.0
36.164091948 119.0
36.169015804 123.0
36.173939660 114.0
36.178863516 105.0
36.183787372 126.0
36.188711228 138.0
36.193635084 125.0
36.198558940 115.0
36.203482796 108.0
36.208406652 120.0
36.213330508 123.0
36.218254364 113.0
36.223178220 118.0
36.228102076 117.0
36.233025932 118.0
36.237949788 140.0
36.242873644 123.0
36.247797500 123.0
36.252721357 125.0
36.257645213 99.0
36.262569069 115.0
36.267492925 115.0
36.272416781 129.0
36.277340637 129.0
36.282264493 139.0
36.287188349 131.0
36.292112205 126.0
36.297036061 114.0
36.301959917 130.0
36.306883773 111.0
36.311807629 127.0
36.316731485 128.0
36.321655341 109.0
36.326579197 108.0
36.331503053 131.0
36.336426909 124.0
36.341350765 134.0
36.346274621 89.0
36.351198477 135.0
36.356122333 133.0
36.361046189 112.0
36.365970045 116.0
36.370893901 123.0
36.375817757 115.0
36.380741613 117.0
36.385665469 121.0
36.390589325 148.0
36.395513181 118.0
36.400437037 120.0
36.405360893 112.0
36.410284749 136.0
36.415208605 126.0
36.420132461 124.0
36.425056317 119.0
36.429980173 126.0
36.434904029 138.0
36.439827885 102.0
36.444751741 124.0
36.449675597 98.0
36.454599453 120.0
36.459523309 122.0
36.464447165 136.0
36.469371021 130.0
36.474294877 128.0
36.479218733 133.0
36.484142589 108.0
36.489066445 118.0
36.493990301 111.0
36.498914157 101.0
36.503838013 127.0
36.508761869 127.0
36.513685725 121.0
36.518609581 100.0
36.523533437 141.0
36.528457293 115.0
36.533381149 123.0
36.538305005 109.0
36.543228861 123.0
36.548152717 126.0
36.553076573 112.0
36.558000429 107.0
36.562924285 127.0
36.567848141 117.0
36.572771997 115.0
36.577695853 113.0
36.582619709 120.0
36.587543565 132.0
36.592467421 117.0
36.597391277 110.0
36.602315133 116.0
36.607238989 150.0
36.612162845 121.0
36.617086701 149.0
36.622010557 119.0
36.626934413 129.0
36.631858269 134.0
36.636782125 96.0
36.641705981 115.0
36.646629837 128.0
36.651553693 113.0
36.656477549 136.0
36.661401405 127.0
36.666325261 125.0
36.671249117 123.0
36.676172973 108.0
36.681096829 126.0
36.686020685 112.0
36.690944541 133.0
36.695868397 133.0
36.700792253 130.0
36.705716109 145.0
36.710639965 122.0
36.715563821 97.0
36.720487677 114.0
36.725411533 109.0
36.730335389 142.0
36.735259245 133.0
36.740183101 118.0
36.745106957 134.0
36.750030813 125.0
36.754954670 126.0
36.759878526 124.0
36.764802382 128.0
36.769726238 135.0
36.774650094 119.0
36.779573950 123.0
36.784497806 121.0
36.789421662 122.0
36.794345518 128.0
36.799269374 123.0
36.804193230 126.0
36.809117086 129.0
36.814040942 97.0
36.818964798 117.0
36.823888654 122.0
36.828812510 124.0
36.833736366 120.0
36.838660222 126.0
36.843584078 123.0
36.848507934 139.0
36.853431790 119.0
36.858355646 113.0
36.863279502 113.0
36.868203358 120.0
36.873127214 111.0
36.878051070 140.0
36.882974926 118.0
36.887898782 159.0
36.892822638 131.0
36.897746494 117.0
36.902670350 136.0
36.907594206 139.0
36.912518062 106.0
36.917441918 124.0
36.922365774 111.0
36.927289630 108.0
36.932213486 128.0
36.937137342 132.0
36.942061198 115.0
36.946985054 113.0
36.951908910 108.0
36.956832766 120.0
36.961756622 117.0
36.966680478 128.0
36.971604334 121.0
36.976528190 139.0
36.981452046 129.0
36.986375902 101.0
36.991299758 104.0
36.996223614 119.0
37.001147470 123.0
37.006071326 134.0
37.010995182 103.0
37.015919038 126.0
37.020842894 133.0
37.025766750 128.0
37.030690606 123.0
37.035614462 137.0
37.040538318 138.0
37.045462174 121.0
37.050386030 118.0
37.055309886 122.0
37.060233742 111.0
37.065157598 124.0
37.070081454 110.0
37.075005310 131.0
37.079929166 117.0
37.084853022 126.0
37.089776878 121.0
37.094700734 121.0
37.099624590 105.0
37.104548446 131.0
37.109472302 130.0
37.114396158 109.0
37.119320014 125.0
37.124243870 128.0
37.129167726 126.0
37.134091582 127.0
37.139015438 119.0
37.143939294 131.0
37.148863150 125.0
37.153787006 110.0
37.158710862 137.0
37.163634718 120.0
37.168558574 121.0
37.173482430 128.0
37.178406286 134.0
37.183330142 115.0
37.188253998 127.0
37.193177854 140.0
37.198101710 128.0
37.203025566 115.0
37.207949422 106.0
37.212873278 108.0
37.217797134 111.0
37.222720990 119.0
37.227644846 122.0
37.232568702 138.0
37.237492558 119.0
37.242416414 121.0
37.247340270 125.0
37.252264127 106.0
37.257187983 130.0
37.262111839 130.0
37.267035695 108.0
37.271959551 139.0
37.276883407 125.0
37.281807263 109.0
37.286731119 137.0
37.291654975 123.0
37.296578831 117.0
37.301502687 125.0
37.306426543 134.0
37.311350399 116.0
37.316274255 110.0
37.321198111 119.0
37.326121967 108.0
37.331045823 133.0
37.335969679 135.0
37.340893535 119.0
37.345817391 124.0
37.350741247 123.0
37.355665103 129.0
37.360588959 131.0
37.365512815 116.0
37.370436671 150.0
37.375360527 173.0
37.380284383 177.0
37.385208239 180.0
37.390132095 177.0
37.395055951 216.0
37.399979807 197.0
37.404903663 282.0
37.409827519 298.0
37.414751375 310.0
37.419675231 359.0
37.424599087 352.0
37.429522943 341.0
37.434446799 328.0
37.439370655 309.0
37.444294511 330.0
37.449218367 298.0
37.454142223 278.0
37.459066079 226.0
37.463989935 215.0
37.468913791 172.0
37.473837647 176.0
37.478761503 161.0
37.483685359 169.0
37.488609215 170.0
37.493533071 155.0
37.498456927 141.0
37.503380783 140.0
37.508304639 118.0
37.513228495 131.0
37.518152351 123.0
37.523076207 150.0
37.528000063 125.0
37.532923919 138.0
37.537847775 132.0
37.542771631 136.0
37.547695487 119.0
37.552619343 124.0
37.557543199 112.0
37.562467055 143.0
37.567390911 127.0
37.572314767 141.0
37.577238623 139.0
37.582162479 122.0
37.587086335 138.0
37.592010191 135.0
37.596934047 111.0
37.601857903 110.0
37.606781759 130.0
37.611705615 162.0
37.616629471 128.0
37.621553327 129.0
37.626477183 134.0
37.631401039 124.0
37.636324895 131.0
37.641248751 120.0
37.646172607 125.0
37.651096463 120.0
37.656020319 143.0
37.660944175 139.0
37.665868031 138.0
37.670791887 120.0
37.675715743 141.0
37.680639599 119.0
37.685563455 135.0
37.690487311 130.0
37.695411167 119.0
37.700335023 113.0
37.705258879 123.0
37.710182735 118.0
37.715106591 131.0
37.720030447 116.0
37.724954303 110.0
37.729878159 120.0
37.734802015 120.0
37.739725871 151.0
37.744649727 118.0
37.749573583 125.0
37.754497440 129.0
37.759421296 110.0
37.764345152 134.0
37.769269008 104.0
37.774192864 122.0
37.779116720 135.0
37.784040576 123.0
37.788964432 132.0
37.793888288 157.0
37.798812144 143.0
37.803736000 121.0
37.808659856 141.0
37.813583712 141.0
37.818507568 131.0
37.823431424 124.0
37.828355280 117.0
37.833279136 147.0
37.838202992 118.0
37.843126848 123.0
37.848050704 126.0
37.852974560 124.0
37.857898416 125.0
37.862822272 141.0
37.867746128 101.0
37.872669984 129.0
37.877593840 134.0
37.882517696 133.0
37.887441552 125.0
37.892365408 137.0
37.897289264 134.0
37.902213120 136.0
37.907136976 134.0
37.912060832 134.0
37.916984688 121.0
37.921908544 122.0
37.926832400 120.0
37.931756256 122.0
37.936680112 114.0
37.941603968 126.0
37.946527824 138.0
37.951451680 119.0
37.956375536 120.0
37.961299392 128.0
37.966223248 132.0
37.971147104 115.0
37.976070960 141.0
37.980994816 138.0
37.985918672 128.0
37.990842528 135.0
37.995766384 121.0
38.000690240 125.0
38.005614096 127.0
38.010537952 113.0
38.015461808 127.0
38.020385664 141.0
38.025309520 121.0
38.030233376 109.0
38.035157232 121.0
38.040081088 111.0
38.045004944 127.0
38.049928800 117.0
38.054852656 123.0
38.059776512 136.0
38.064700368 160.0
38.069624224 153.0
38.074548080 140.0
38.079471936 125.0
38.084395792 120.0
38.089319648 117.0
38.094243504 122.0
38.099167360 127.0
38.104091216 122.0
38.109015072 111.0
38.113938928 122.0
38.118862784 136.0
38.123786640 128.0
38.128710496 139.0
38.133634352 146.0
38.138558208 118.0
38.143482064 130.0
38.148405920 111.0
38.153329776 143.0
38.158253632 147.0
38.163177488 127.0
38.168101344 131.0
38.173025200 129.0
38.177949056 137.0
38.182872912 139.0
38.187796768 127.0
38.192720624 137.0
38.197644480 132.0
38.202568336 126.0
38.207492192 110.0
38.212416048 123.0
38.217339904 152.0
38.222263760 150.0
38.227187616 127.0
38.232111472 123.0
38.237035328 148.0
38.241959184 130.0
38.246883040 124.0
38.251806897 140.0
38.256730753 122.0
38.261654609 129.0
38.266578465 123.0
38.271502321 115.0
38.276426177 122.0
38.281350033 115.0
38.286273889 130.0
38.291197745 133.0
38.296121601 141.0
38.301045457 136.0
38.305969313 142.0
38.310893169 136.0
38.315817025 126.0
38.320740881 135.0
38.325664737 123.0
38.330588593 119.0
38.335512449 140.0
38.340436305 117.0
38.345360161 161.0
38.350284017 147.0
38.355207873 138.0
38.360131729 139.0
38.365055585 140.0
38.369979441 135.0
38.374903297 122.0
38.379827153 131.0
38.384751009 149.0
38.389674865 146.0
38.394598721 115.0
38.399522577 130.0
38.404446433 136.0
38.409370289 153.0
38.414294145 127.0
38.419218001 137.0
38.424141857 138.0
38.429065713 147.0
38.433989569 142.0
38.438913425 124.0
38.443837281 146.0
38.448761137 144.0
38.453684993 141.0
38.458608849 131.0
38.463532705 138.0
38.468456561 132.0
38.473380417 129.0
38.478304273 127.0
38.483228129 136.0
38.488151985 124.0
38.493075841 133.0
38.497999697 132.0
38.502923553 155.0
38.507847409 141.0
38.512771265 132.0
38.517695121 148.0
38.522618977 131.0
38.527542833 140.0
38.532466689 141.0
38.537390545 149.0
38.542314401 148.0
38.547238257 158.0
38.552162113 138.0
38.557085969 124.0
38.562009825 129.0
38.566933681 135.0
38.571857537 153.0
38.576781393 146.0
38.581705249 141.0
38.586629105 140.0
38.591552961 132.0
38.596476817 163.0
38.601400673 141.0
38.606324529 154.0
38.611248385 172.0
38.616172241 135.0
38.621096097 141.0
38.626019953 165.0
38.630943809 152.0
38.635867665 159.0
38.640791521 128.0
38.645715377 151.0
38.650639233 184.0
38.655563089 138.0
38.660486945 151.0
38.665410801 141.0
38.670334657 146.0
38.675258513 140.0
38.680182369 130.0
38.685106225 166.0
38.690030081 153.0
38.694953937 142.0
38.699877793 157.0
38.704801649 144.0
38.709725505 133.0
38.714649361 132.0
38.719573217 166.0
38.724497073 156.0
38.729420929 137.0
38.734344785 155.0
38.739268641 127.0
38.744192497 153.0
38.749116353 152.0
38.754040210 158.0
38.758964066 166.0
38.763887922 152.0
38.768811778 184.0
38.773735634 177.0
38.778659490 177.0
38.783583346 179.0
38.788507202 172.0
38.793431058 176.0
38.798354914 131.0
38.803278770 140.0
38.808202626 165.0
38.813126482 166.0
38.818050338 142.0
38.822974194 164.0
38.827898050 156.0
38.832821906 164.0
38.837745762 149.0
38.842669618 145.0
38.847593474 171.0
38.852517330 155.0
38.857441186 163.0
38.862365042 151.0
38.867288898 163.0
38.872212754 174.0
38.877136610 161.0
38.882060466 154.0
38.886984322 152.0
38.891908178 157.0
38.896832034 191.0
38.901755890 186.0
38.906679746 171.0
38.911603602 173.0
38.916527458 169.0
38.921451314 180.0
38.926375170 176.0
38.931299026 178.0
38.936222882 200.0
38.941146738 194.0
38.946070594 194.0
38.950994450 195.0
38.955918306 202.0
38.960842162 186.0
38.965766018 178.0
38.970689874 191.0
38.975613730 189.0
38.980537586 175.0
38.985461442 191.0
38.990385298 196.0
38.995309154 193.0
39.000233010 177.0
39.005156866 183.0
39.010080722 175.0
39.015004578 186.0
39.019928434 205.0
39.024852290 217.0
39.029776146 204.0
39.034700002 202.0
39.039623858 205.0
39.044547714 216.0
39.049471570 212.0
39.054395426 233.0
39.059319282 228.0
39.064243138 233.0
39.069166994 259.0
39.074090850 229.0
39.079014706 271.0
39.083938562 300.0
39.088862418 258.0
39.093786274 274.0
39.098710130 284.0
39.103633986 216.0
39.108557842 271.0
39.113481698 299.0
39.118405554 272.0
39.123329410 274.0
39.128253266 288.0
39.133177122 264.0
39.138100978 285.0
39.143024834 273.0
39.147948690 279.0
39.152872546 257.0
39.157796402 267.0
39.162720258 293.0
39.167644114 287.0
39.172567970 297.0
39.177491826 307.0
39.182415682 362.0
39.187339538 345.0
39.192263394 344.0
39.197187250 339.0
39.202111106 363.0
39.207034962 389.0
39.211958818 404.0
39.216882674 397.0
39.221806530 434.0
39.226730386 486.0
39.231654242 461.0
39.236578098 495.0
39.241501954 513.0
39.246425810 481.0
39.251349667 545.0
39.256273523 523.0
39.261197379 569.0
39.266121235 542.0
39.271045091 554.0
39.275968947 547.0
39.280892803 559.0
39.285816659 551.0
39.290740515 588.0
39.295664371 570.0
39.300588227 607.0
39.305512083 603.0
39.310435939 593.0
39.315359795 630.0
39.320283651 648.0
39.325207507 668.0
39.330131363 701.0
39.335055219 700.0
39.339979075 849.0
39.344902931 797.0
39.349826787 940.0
39.354750643 1015.0
39.359674499 1021.0
39.364598355 1099.0
39.369522211 1183.0
39.374446067 1307.0
39.379369923 1390.0
39.384293779 1584.0
39.389217635 1659.0
39.394141491 1768.0
39.399065347 1859.0
39.403989203 2045.0
39.408913059 2145.0
39.413836915 2298.0
39.418760771 2384.0
39.423684627 2635.0
39.428608483 2735.0
39.433532339 2837.0
39.438456195 2825.0
39.443380051 2984.0
39.448303907 3219.0
39.453227763 3190.0
39.458151619 3322.0
39.463075475 3340.0
39.467999331 3423.0
39.472923187 3360.0
39.477847043 3547.0
39.482770899 3540.0
39.487694755 3518.0
39.492618611 3490.0
39.497542467 3480.0
39.502466323 3493.0
39.507390179 3528.0
39.512314035 3416.0
39.517237891 3300.0
39.522161747 3359.0
39.527085603 3359.0
39.532009459 3214.0
39.536933315 3071.0
39.541857171 3180.0
39.546781027 3056.0
39.551704883 3041.0
39.556628739 2757.0
39.561552595 2826.0
39.566476451 2676.0
39.571400307 2552.0
39.576324163 2523.0
39.581248019 2468.0
39.586171875 2308.0
39.591095731 2268.0
39.596019587 2228.0
39.600943443 2048.0
39.605867299 1968.0
39.610791155 1901.0
39.615715011 1809.0
39.620638867 1678.0
39.625562723 1635.0
39.630486579 1613.0
39.635410435 1425.0
39.640334291 1457.0
39.645258147 1317.0
39.650182003 1267.0
39.655105859 1175.0
39.660029715 1119.0
39.664953571 1020.0
39.669877427 1071.0
39.674801283 987.0
39.679725139 877.0
39.684648995 794.0
39.689572851 767.0
39.694496707 718.0
39.699420563 700.0
39.704344419 647.0
39.709268275 682.0
39.714192131 603.0
39.719115987 483.0
39.724039843 510.0
39.728963699 495.0
39.733887555 494.0
39.738811411 445.0
39.743735267 453.0
39.748659123 441.0
39.753582980 433.0
39.758506836 427.0
39.763430692 426.0
39.768354548 390.0
39.773278404 384.0
39.778202260 377.0
39.783126116 359.0
39.788049972 346.0
39.792973828 375.0
39.797897684 367.0
39.802821540 354.0
39.807745396 307.0
39.812669252 326.0
39.817593108 303.0
39.822516964 292.0
39.827440820 290.0
39.832364676 278.0
39.837288532 302.0
39.842212388 231.0
39.847136244 298.0
39.852060100 241.0
39.856983956 239.0
39.861907812 216.0
39.866831668 233.0
39.871755524 198.0
39.876679380 211.0
39.881603236 212.0
39.886527092 212.0
39.891450948 256.0
39.896374804 207.0
39.901298660 207.0
39.906222516 198.0
39.911146372 187.0
39.916070228 181.0
39.920994084 168.0
39.925917940 195.0
39.930841796 187.0
39.935765652 205.0
39.940689508 180.0
39.945613364 161.0
39.950537220 197.0
39.955461076 191.0
39.960384932 189.0
39.965308788 208.0
39.970232644 203.0
39.975156500 178.0
39.980080356 184.0
39.985004212 164.0
39.989928068 157.0
39.994851924 179.0
39.999775780 167.0
40.004699636 162.0
40.009623492 165.0
40.014547348 174.0
40.019471204 165.0
40.024395060 128.0
40.029318916 174.0
40.034242772 153.0
40.039166628 143.0
40.044090484 139.0
40.049014340 151.0
40.053938196 182.0
40.058862052 168.0
40.063785908 186.0
40.068709764 177.0
40.073633620 145.0
40.078557476 151.0
40.083481332 160.0
40.088405188 146.0
40.093329044 176.0
40.098252900 171.0
40.103176756 145.0
40.108100612 141.0
40.113024468 171.0
40.117948324 147.0
40.122872180 135.0
40.127796036 169.0
40.132719892 157.0
40.137643748 144.0
40.142567604 147.0
40.147491460 147.0
40.152415316 124.0
40.157339172 153.0
40.162263028 114.0
40.167186884 149.0
40.172110740 160.0
40.177034596 156.0
40.181958452 166.0
40.186882308 157.0
40.191806164 156.0
40.196730020 172.0
40.201653876 174.0
40.206577732 157.0
40.211501588 144.0
40.216425444 176.0
40.221349300 155.0
40.226273156 166.0
40.231197012 160.0
40.236120868 157.0
40.241044724 129.0
40.245968580 130.0
40.250892437 142.0
40.255816293 130.0
40.260740149 139.0
40.265664005 142.0
40.270587861 146.0
40.275511717 158.0
40.280435573 146.0
40.285359429 150.0
40.290283285 131.0
40.295207141 142.0
40.300130997 154.0
40.305054853 171.0
40.309978709 119.0
40.314902565 155.0
40.319826421 160.0
40.324750277 142.0
40.329674133 151.0
40.334597989 150.0
40.339521845 127.0
40.344445701 149.0
40.349369557 143.0
40.354293413 159.0
40.359217269 170.0
40.364141125 137.0
40.369064981 167.0
40.373988837 142.0
40.378912693 154.0
40.383836549 133.0
40.388760405 173.0
40.393684261 169.0
40.398608117 137.0
40.403531973 142.0
40.408455829 161.0
40.413379685 154.0
40.418303541 149.0
40.423227397 142.0
40.428151253 172.0
40.433075109 148.0
40.437998965 132.0
40.442922821 154.0
40.447846677 135.0
40.452770533 141.0
40.457694389 146.0
40.462618245 181.0
40.467542101 148.0
40.472465957 160.0
40.477389813 154.0
40.482313669 154.0
40.487237525 171.0
40.492161381 171.0
40.497085237 147.0
40.502009093 155.0
40.506932949 151.0
40.511856805 134.0
40.516780661 164.0
40.521704517 136.0
40.526628373 136.0
40.531552229 153.0
40.536476085 162.0
40.541399941 142.0
40.546323797 138.0
40.551247653 135.0
40.556171509 153.0
40.561095365 142.0
40.566019221 146.0
40.570943077 130.0
40.575866933 163.0
40.580790789 148.0
40.585714645 162.0
40.590638501 147.0
40.595562357 165.0
40.600486213 156.0
40.605410069 174.0
40.610333925 157.0
40.615257781 161.0
40.620181637 151.0
40.625105493 150.0
40.630029349 155.0
40.634953205 170.0
40.639877061 185.0
40.644800917 173.0
40.649724773 157.0
40.654648629 167.0
40.659572485 169.0
40.664496341 152.0
40.669420197 169.0
40.674344053 174.0
40.679267909 171.0
40.684191765 153.0
40.689115621 157.0
40.694039477 168.0
40.698963333 159.0
40.703887189 191.0
40.708811045 178.0
40.713734901 178.0
40.718658757 163.0
40.723582613 162.0
40.728506469 169.0
40.733430325 171.0
40.738354181 174.0
40.743278037 177.0
40.748201893 180.0
40.753125750 169.0
40.758049606 163.0
40.762973462 197.0
40.767897318 168.0
40.772821174 165.0
40.777745030 182.0
40.782668886 146.0
40.787592742 165.0
40.792516598 163.0
40.797440454 163.0
40.802364310 160.0
40.807288166 176.0
40.812212022 188.0
40.817135878 169.0
40.822059734 191.0
40.826983590 155.0
40.831907446 177.0
40.836831302 183.0
40.841755158 182.0
40.846679014 185.0
40.851602870 169.0
40.856526726 185.0
40.861450582 179.0
40.866374438 167.0
40.871298294 177.0
40.876222150 206.0
40.881146006 154.0
40.886069862 186.0
40.890993718 181.0
40.895917574 184.0
40.900841430 175.0
40.905765286 193.0
40.910689142 169.0
40.915612998 183.0
40.920536854 174.0
40.925460710 179.0
40.930384566 195.0
40.935308422 195.0
40.940232278 201.0
40.945156134 181.0
40.950079990 197.0
40.955003846 181.0
40.959927702 188.0
40.964851558 195.0
40.969775414 200.0
40.974699270 198.0
40.979623126 180.0
40.984546982 210.0
40.989470838 218.0
40.994394694 201.0
40.999318550 209.0
41.004242406 193.0
41.009166262 206.0
41.014090118 209.0
41.019013974 211.0
41.023937830 214.0
41.028861686 204.0
41.033785542 191.0
41.038709398 189.0
41.043633254 197.0
41.048557110 210.0
41.053480966 197.0
41.058404822 214.0
41.063328678 201.0
41.068252534 223.0
41.073176390 177.0
41.078100246 226.0
41.083024102 170.0
41.087947958 182.0
41.092871814 232.0
41.097795670 216.0
41.102719526 213.0
41.107643382 193.0
41.112567238 218.0
41.117491094 206.0
41.122414950 233.0
41.127338806 206.0
41.132262662 211.0
41.137186518 209.0
41.142110374 215.0
41.147034230 257.0
41.151958086 212.0
41.156881942 223.0
41.161805798 255.0
41.166729654 202.0
41.171653510 229.0
41.176577366 215.0
41.181501222 276.0
41.186425078 263.0
41.191348934 227.0
41.196272790 271.0
41.201196646 264.0
41.206120502 280.0
41.211044358 263.0
41.215968214 219.0
41.220892070 290.0
41.225815926 233.0
41.230739782 304.0
41.235663638 308.0
41.240587494 266.0
41.245511350 292.0
41.250435207 277.0
41.255359063 295.0
41.260282919 302.0
41.265206775 298.0
41.270130631 328.0
41.275054487 278.0
41.279978343 315.0
41.284902199 309.0
41.289826055 305.0
41.294749911 323.0
41.299673767 330.0
41.304597623 369.0
41.309521479 310.0
41.314445335 340.0
41.319369191 373.0
41.324293047 347.0
41.329216903 347.0
41.334140759 393.0
41.339064615 418.0
41.343988471 403.0
41.348912327 396.0
41.353836183 443.0
41.358760039 462.0
41.363683895 508.0
41.368607751 535.0
41.373531607 598.0
41.378455463 657.0
41.383379319 678.0
41.388303175 748.0
41.393227031 777.0
41.398150887 873.0
41.403074743 879.0
41.407998599 998.0
41.412922455 969.0
41.417846311 994.0
41.422770167 1046.0
41.427694023 979.0
41.432617879 1017.0
41.437541735 996.0
41.442465591 1007.0
41.447389447 1052.0
41.452313303 1037.0
41.457237159 959.0
41.462161015 1003.0
41.467084871 995.0
41.472008727 982.0
41.476932583 1018.0
41.481856439 987.0
41.486780295 1092.0
41.491704151 1075.0
41.496628007 1223.0
41.501551863 1292.0
41.506475719 1397.0
41.511399575 1462.0
41.516323431 1686.0
41.521247287 1785.0
41.526171143 2056.0
41.531094999 2426.0
41.536018855 2698.0
41.540942711 3365.0
41.545866567 4046.0
41.550790423 5230.0
41.555714279 6655.0
41.560638135 9478.0
41.565561991 14197.0
41.570485847 22649.0
41.575409703 33888.0
41.580333559 45278.0
41.585257415 52892.0
41.590181271 58232.0
41.595105127 61548.0
41.600028983 63270.0
41.604952839 63600.0
41.609876695 63786.0
41.614800551 62814.0
41.619724407 59887.0
41.624648263 54007.0
41.629572119 43863.0
41.634495975 32130.0
41.639419831 21300.0
41.644343687 14444.0
41.649267543 10469.0
41.654191399 8251.0
41.659115255 7132.0
41.664039111 6897.0
41.668962967 7906.0
41.673886823 9501.0
41.678810679 13257.0
41.683734535 18143.0
41.688658391 23478.0
41.693582247 26755.0
41.698506103 29163.0
41.703429959 30838.0
41.708353815 31835.0
41.713277671 31604.0
41.718201527 31374.0
41.723125383 30665.0
41.728049239 29031.0
41.732973095 26105.0
41.737896951 21199.0
41.742820807 16088.0
41.747744663 10948.0
41.752668520 7529.0
41.757592376 5354.0
41.762516232 3853.0
41.767440088 2980.0
41.772363944 2485.0
41.777287800 1987.0
41.782211656 1746.0
41.787135512 1594.0
41.792059368 1378.0
41.796983224 1278.0
41.801907080 1146.0
41.806830936 1139.0
41.811754792 1036.0
41.816678648 957.0
41.821602504 866.0
41.826526360 831.0
41.831450216 754.0
41.836374072 728.0
41.841297928 670.0
41.846221784 685.0
41.851145640 639.0
41.856069496 666.0
41.860993352 605.0
41.865917208 561.0
41.870841064 567.0
41.875764920 546.0
41.880688776 505.0
41.885612632 492.0
41.890536488 486.0
41.895460344 454.0
41.900384200 488.0
41.905308056 472.0
41.910231912 477.0
41.915155768 426.0
41.920079624 418.0
41.925003480 414.0
41.929927336 399.0
41.934851192 406.0
41.939775048 392.0
41.944698904 426.0
41.949622760 400.0
41.954546616 356.0
41.959470472 346.0
41.964394328 364.0
41.969318184 351.0
41.974242040 348.0
41.979165896 333.0
41.984089752 315.0
41.989013608 362.0
41.993937464 310.0
41.998861320 313.0
42.003785176 313.0
42.008709032 286.0
42.013632888 285.0
42.018556744 309.0
42.023480600 230.0
42.028404456 297.0
42.033328312 273.0
42.038252168 297.0
42.043176024 269.0
42.048099880 274.0
42.053023736 255.0
42.057947592 277.0
42.062871448 261.0
42.067795304 205.0
42.072719160 256.0
42.077643016 267.0
42.082566872 257.0
42.087490728 218.0
42.092414584 212.0
42.097338440 223.0
42.102262296 197.0
42.107186152 218.0
42.112110008 224.0
42.117033864 203.0
42.121957720 213.0
42.126881576 219.0
42.131805432 203.0
42.136729288 222.0
42.141653144 202.0
42.146577000 201.0
42.151500856 218.0
42.156424712 196.0
42.161348568 170.0
42.166272424 204.0
42.171196280 198.0
42.176120136 217.0
42.181043992 193.0
42.185967848 180.0
42.190891704 186.0
42.195815560 176.0
42.200739416 181.0
42.205663272 171.0
42.210587128 187.0
42.215510984 184.0
42.220434840 193.0
42.225358696 192.0
42.230282552 190.0
42.235206408 186.0
42.240130264 176.0
42.245054120 154.0
42.249977977 185.0
42.254901833 156.0
42.259825689 192.0
42.264749545 212.0
42.269673401 187.0
42.274597257 164.0
42.279521113 181.0
42.284444969 179.0
42.289368825 188.0
42.294292681 180.0
42.299216537 188.0
42.304140393 167.0
42.309064249 166.0
42.313988105 188.0
42.318911961 169.0
42.323835817 181.0
42.328759673 169.0
42.333683529 194.0
42.338607385 161.0
42.343531241 153.0
42.348455097 166.0
42.353378953 159.0
42.358302809 156.0
42.363226665 154.0
42.368150521 149.0
42.373074377 161.0
42.377998233 151.0
42.382922089 150.0
42.387845945 149.0
42.392769801 149.0
42.397693657 174.0
42.402617513 157.0
42.407541369 159.0
42.412465225 180.0
42.417389081 179.0
42.422312937 129.0
42.427236793 153.0
42.432160649 154.0
42.437084505 146.0
42.442008361 142.0
42.446932217 173.0
42.451856073 155.0
42.456779929 157.0
42.461703785 147.0
42.466627641 156.0
42.471551497 159.0
42.476475353 123.0
42.481399209 159.0
42.486323065 146.0
42.491246921 137.0
42.496170777 159.0
42.501094633 146.0
42.506018489 136.0
42.510942345 146.0
42.515866201 146.0
42.520790057 142.0
42.525713913 156.0
42.530637769 146.0
42.535561625 148.0
42.540485481 138.0
42.545409337 165.0
42.550333193 167.0
42.555257049 149.0
42.560180905 147.0
42.565104761 148.0
42.570028617 137.0
42.574952473 122.0
42.579876329 125.0
42.584800185 142.0
42.589724041 156.0
42.594647897 149.0
42.599571753 140.0
42.604495609 139.0
42.609419465 146.0
42.614343321 154.0
42.619267177 148.0
42.624191033 147.0
42.629114889 130.0
42.634038745 151.0
42.638962601 139.0
42.643886457 138.0
42.648810313 139.0
42.653734169 133.0
42.658658025 140.0
42.663581881 124.0
42.668505737 142.0
42.673429593 141.0
42.678353449 142.0
42.683277305 148.0
42.688201161 154.0
42.693125017 120.0
42.698048873 124.0
42.702972729 119.0
42.707896585 142.0
42.712820441 140.0
42.717744297 137.0
42.722668153 132.0
42.727592009 153.0
42.732515865 149.0
42.737439721 120.0
42.742363577 142.0
42.747287433 146.0
42.752211290 150.0
42.757135146 155.0
42.762059002 153.0
42.766982858 130.0
42.771906714 135.0
42.776830570 122.0
42.781754426 139.0
42.786678282 138.0
42.791602138 143.0
42.796525994 133.0
42.801449850 133.0
42.806373706 140.0
42.811297562 114.0
42.816221418 155.0
42.821145274 127.0
42.826069130 115.0
42.830992986 119.0
42.835916842 145.0
42.840840698 131.0
42.845764554 132.0
42.850688410 104.0
42.855612266 129.0
42.860536122 135.0
42.865459978 144.0
42.870383834 148.0
42.875307690 139.0
42.880231546 142.0
42.885155402 137.0
42.890079258 138.0
42.895003114 125.0
42.899926970 142.0
42.904850826 124.0
42.909774682 141.0
42.914698538 127.0
42.919622394 129.0
42.924546250 128.0
42.929470106 158.0
42.934393962 125.0
42.939317818 122.0
42.944241674 138.0
42.949165530 148.0
42.954089386 139.0
42.959013242 155.0
42.963937098 150.0
42.968860954 150.0
42.973784810 127.0
42.978708666 150.0
42.983632522 162.0
42.988556378 128.0
42.993480234 133.0
42.998404090 137.0
43.003327946 126.0
43.008251802 126.0
43.013175658 132.0
43.018099514 124.0
43.023023370 154.0
43.027947226 148.0
43.032871082 130.0
43.037794938 140.0
43.042718794 136.0
43.047642650 126.0
43.052566506 162.0
43.057490362 135.0
43.062414218 130.0
43.067338074 136.0
43.072261930 143.0
43.077185786 143.0
43.082109642 146.0
43.087033498 126.0
43.091957354 132.0
43.096881210 130.0
43.101805066 140.0
43.106728922 120.0
43.111652778 127.0
43.116576634 141.0
43.121500490 134.0
43.126424346 125.0
43.131348202 114.0
43.136272058 127.0
43.141195914 140.0
43.146119770 126.0
43.151043626 133.0
43.155967482 134.0
43.160891338 145.0
43.165815194 129.0
43.170739050 142.0
43.175662906 127.0
43.180586762 128.0
43.185510618 124.0
43.190434474 126.0
43.195358330 128.0
43.200282186 122.0
43.205206042 137.0
43.210129898 121.0
43.215053754 127.0
43.219977610 132.0
43.224901466 136.0
43.229825322 112.0
43.234749178 126.0
43.239673034 144.0
43.244596890 120.0
43.249520747 141.0
43.254444603 128.0
43.259368459 137.0
43.264292315 121.0
43.269216171 114.0
43.274140027 117.0
43.279063883 123.0
43.283987739 147.0
43.288911595 132.0
43.293835451 151.0
43.298759307 101.0
43.303683163 106.0
43.308607019 133.0
43.313530875 122.0
43.318454731 137.0
43.323378587 122.0
43.328302443 124.0
43.333226299 160.0
43.338150155 119.0
43.343074011 123.0
43.347997867 131.0
43.352921723 146.0
43.357845579 122.0
43.362769435 151.0
43.367693291 146.0
43.372617147 126.0
43.377541003 141.0
43.382464859 144.0
43.387388715 123.0
43.392312571 132.0
43.397236427 137.0
43.402160283 127.0
43.407084139 142.0
43.412007995 119.0
43.416931851 118.0
43.421855707 122.0
43.426779563 130.0
43.431703419 123.0
43.436627275 122.0
43.441551131 140.0
43.446474987 113.0
43.451398843 129.0
43.456322699 141.0
43.461246555 139.0
43.466170411 135.0
43.471094267 137.0
43.476018123 127.0
43.480941979 126.0
43.485865835 149.0
43.490789691 130.0
43.495713547 150.0
43.500637403 153.0
43.505561259 130.0
43.510485115 125.0
43.515408971 151.0
43.520332827 152.0
43.525256683 126.0
43.530180539 126.0
43.535104395 135.0
43.540028251 127.0
43.544952107 118.0
43.549875963 143.0
43.554799819 122.0
43.559723675 135.0
43.564647531 123.0
43.569571387 131.0
43.574495243 115.0
43.579419099 128.0
43.584342955 143.0
43.589266811 139.0
43.594190667 126.0
43.599114523 123.0
43.604038379 150.0
43.608962235 132.0
43.613886091 132.0
43.618809947 124.0
43.623733803 139.0
43.628657659 102.0
43.633581515 131.0
43.638505371 129.0
43.643429227 138.0
43.648353083 126.0
43.653276939 123.0
43.658200795 141.0
43.663124651 134.0
43.668048507 133.0
43.672972363 117.0
43.677896219 126.0
43.682820075 148.0
43.687743931 155.0
43.692667787 140.0
43.697591643 140.0
43.702515499 155.0
43.707439355 132.0
43.712363211 132.0
43.717287067 134.0
43.722210923 145.0
43.727134779 128.0
43.732058635 143.0
43.736982491 131.0
43.741906347 141.0
43.746830203 127.0
43.751754060 116.0
43.756677916 128.0
43.761601772 139.0
43.766525628 124.0
43.771449484 151.0
43.776373340 135.0
43.781297196 133.0
43.786221052 111.0
43.791144908 142.0
43.796068764 136.0
43.800992620 145.0
43.805916476 131.0
43.810840332 134.0
43.815764188 128.0
43.820688044 127.0
43.825611900 128.0
43.830535756 158.0
43.835459612 136.0
43.840383468 128.0
43.845307324 138.0
43.850231180 124.0
43.855155036 132.0
43.860078892 137.0
43.865002748 133.0
43.869926604 123.0
43.874850460 121.0
43.879774316 131.0
43.884698172 134.0
43.889622028 141.0
43.894545884 140.0
43.899469740 138.0
43.904393596 140.0
43.909317452 151.0
43.914241308 163.0
43.919165164 122.0
43.924089020 117.0
43.929012876 150.0
43.933936732 154.0
43.938860588 138.0
43.943784444 136.0
43.948708300 131.0
43.953632156 147.0
43.958556012 166.0
43.963479868 157.0
43.968403724 142.0
43.973327580 157.0
43.978251436 147.0
43.983175292 137.0
43.988099148 134.0
43.993023004 151.0
43.997946860 167.0
44.002870716 148.0
44.007794572 148.0
44.012718428 178.0
44.017642284 131.0
44.022566140 153.0
44.027489996 144.0
44.032413852 176.0
44.037337708 142.0
44.042261564 167.0
44.047185420 149.0
44.052109276 151.0
44.057033132 159.0
44.061956988 159.0
44.066880844 143.0
44.071804700 126.0
44.076728556 166.0
44.081652412 165.0
44.086576268 173.0
44.091500124 173.0
44.096423980 154.0
44.101347836 159.0
44.106271692 151.0
44.111195548 138.0
44.116119404 159.0
44.121043260 161.0
44.125967116 159.0
44.130890972 146.0
44.135814828 142.0
44.140738684 174.0
44.145662540 180.0
44.150586396 146.0
44.155510252 166.0
44.160434108 167.0
44.165357964 189.0
44.170281820 145.0
44.175205676 139.0
44.180129532 171.0
44.185053388 181.0
44.189977244 155.0
44.194901100 168.0
44.199824956 183.0
44.204748812 184.0
44.209672668 180.0
44.214596524 194.0
44.219520380 162.0
44.224444236 205.0
44.229368092 209.0
44.234291948 184.0
44.239215804 208.0
44.244139660 185.0
44.249063517 185.0
44.253987373 209.0
44.258911229 190.0
44.263835085 215.0
44.268758941 217.0
44.273682797 198.0
44.278606653 202.0
44.283530509 221.0
44.288454365 219.0
44.293378221 228.0
44.298302077 206.0
44.303225933 232.0
44.308149789 217.0
44.313073645 241.0
44.317997501 220.0
44.322921357 241.0
44.327845213 258.0
44.332769069 276.0
44.337692925 242.0
44.342616781 257.0
44.347540637 242.0
44.352464493 300.0
44.357388349 259.0
44.362312205 271.0
44.367236061 261.0
44.372159917 250.0
44.377083773 259.0
44.382007629 264.0
44.386931485 282.0
44.391855341 265.0
44.396779197 275.0
44.401703053 279.0
44.406626909 277.0
44.411550765 284.0
44.416474621 267.0
44.421398477 289.0
44.426322333 249.0
44.431246189 272.0
44.436170045 281.0
44.441093901 259.0
44.446017757 287.0
44.450941613 257.0
44.455865469 269.0
44.460789325 250.0
44.465713181 241.0
44.470637037 270.0
44.475560893 259.0
44.480484749 290.0
44.485408605 233.0
44.490332461 242.0
44.495256317 255.0
44.500180173 240.0
44.505104029 247.0
44.510027885 273.0
44.514951741 243.0
44.519875597 273.0
44.524799453 265.0
44.529723309 222.0
44.534647165 223.0
44.539571021 232.0
44.544494877 218.0
44.549418733 201.0
44.554342589 227.0
44.559266445 243.0
44.564190301 209.0
44.569114157 196.0
44.574038013 240.0
44.578961869 219.0
44.583885725 200.0
44.588809581 194.0
44.593733437 208.0
44.598657293 200.0
44.603581149 218.0
44.608505005 214.0
44.613428861 156.0
44.618352717 171.0
44.623276573 163.0
44.628200429 180.0
44.633124285 172.0
44.638048141 182.0
44.642971997 169.0
44.647895853 174.0
44.652819709 172.0
44.657743565 161.0
44.662667421 166.0
44.667591277 163.0
44.672515133 156.0
44.677438989 183.0
44.682362845 159.0
44.687286701 143.0
44.692210557 162.0
44.697134413 165.0
44.702058269 151.0
44.706982125 152.0
44.711905981 151.0
44.716829837 146.0
44.721753693 159.0
44.726677549 150.0
44.731601405 161.0
44.736525261 150.0
44.741449117 130.0
44.746372973 139.0
44.751296830 164.0
44.756220686 161.0
44.761144542 164.0
44.766068398 146.0
44.770992254 146.0
44.775916110 146.0
44.780839966 151.0
44.785763822 142.0
44.790687678 149.0
44.795611534 153.0
44.800535390 155.0
44.805459246 125.0
44.810383102 144.0
44.815306958 157.0
44.820230814 139.0
44.825154670 134.0
44.830078526 136.0
44.835002382 130.0
44.839926238 158.0
44.844850094 147.0
44.849773950 135.0
44.854697806 160.0
44.859621662 129.0
44.864545518 146.0
44.869469374 132.0
44.874393230 135.0
44.879317086 158.0
44.884240942 119.0
44.889164798 139.0
44.894088654 139.0
44.899012510 127.0
44.903936366 116.0
44.908860222 143.0
44.913784078 161.0
44.918707934 132.0
44.923631790 144.0
44.928555646 116.0
44.933479502 113.0
44.938403358 129.0
44.943327214 122.0
44.948251070 139.0
44.953174926 168.0
44.958098782 127.0
44.963022638 141.0
44.967946494 119.0
44.972870350 109.0
44.977794206 136.0
44.982718062 148.0
44.987641918 134.0
44.992565774 144.0
44.997489630 148.0
