30.002461930 109.0
30.007385786 121.0
30.012309642 88.0
30.017233498 96.0
30.022157354 122.0
30.027081210 107.0
30.032005066 135.0
30.036928922 104.0
30.041852778 120.0
30.046776634 96.0
30.051700490 92.0
30.056624346 114.0
30.061548202 89.0
30.066472058 116.0
30.071395914 115.0
30.076319770 117.0
30.081243626 88.0
30.086167482 112.0
30.091091338 94.0
30.096015194 120.0
30.100939050 121.0
30.105862906 98.0
30.110786762 86.0
30.115710618 89.0
30.120634474 84.0
30.125558330 127.0
30.130482186 104.0
30.135406042 104.0
30.140329898 101.0
30.145253754 98.0
30.150177610 114.0
30.155101466 84.0
30.160025322 117.0
30.164949178 87.0
30.169873034 104.0
30.174796890 106.0
30.179720746 115.0
30.184644602 106.0
30.189568458 104.0
30.194492314 81.0
30.199416170 102.0
30.204340026 97.0
30.209263882 91.0
30.214187738 125.0
30.219111594 105.0
30.224035450 99.0
30.228959306 112.0
30.233883162 101.0
30.238807018 111.0
30.243730874 111.0
30.248654730 97.0
30.253578587 100.0
30.258502443 99.0
30.263426299 104.0
30.268350155 115.0
30.273274011 111.0
30.278197867 124.0
30.283121723 100.0
30.288045579 100.0
30.292969435 102.0
30.297893291 103.0
30.302817147 96.0
30.307741003 103.0
30.312664859 94.0
30.317588715 122.0
30.322512571 94.0
30.327436427 102.0
30.332360283 102.0
30.337284139 99.0
30.342207995 111.0
30.347131851 86.0
30.352055707 92.0
30.356979563 112.0
30.361903419 106.0
30.366827275 119.0
30.371751131 96.0
30.376674987 108.0
30.381598843 98.0
30.386522699 117.0
30.391446555 94.0
30.396370411 104.0
30.401294267 105.0
30.406218123 87.0
30.411141979 94.0
30.416065835 95.0
30.420989691 108.0
30.425913547 102.0
30.430837403 99.0
30.435761259 108.0
30.440685115 121.0
30.445608971 104.0
30.450532827 103.0
30.455456683 76.0
30.460380539 100.0
30.465304395 76.0
30.470228251 100.0
30.475152107 105.0
30.480075963 107.0
30.484999819 105.0
30.489923675 84.0
30.494847531 114.0
30.499771387 87.0
30.504695243 89.0
30.509619099 106.0
30.514542955 109.0
30.519466811 97.0
30.524390667 117.0
30.529314523 96.0
30.534238379 97.0
30.539162235 109.0
30.544086091 107.0
30.549009947 87.0
30.553933803 92.0
30.558857659 100.0
30.563781515 102.0
30.568705371 97.0
30.573629227 104.0
30.578553083 95.0
30.583476939 95.0
30.588400795 106.0
30.593324651 103.0
30.598248507 113.0
30.603172363 102.0
30.608096219 116.0
30.613020075 106.0
30.617943931 105.0
30.622867787 85.0
30.627791643 114.0
30.632715499 101.0
30.637639355 79.0
30.642563211 106.0
30.647487067 112.0
30.652410923 93.0
30.657334779 113.0
30.662258635 102.0
30.667182491 111.0
30.672106347 113.0
30.677030203 99.0
30.681954059 87.0
30.686877915 104.0
30.691801771 100.0
30.696725627 100.0
30.701649483 100.0
30.706573339 83.0
30.711497195 103.0
30.716421051 96.0
30.721344907 97.0
30.726268763 107.0
30.731192619 102.0
30.736116475 94.0
30.741040331 112.0
30.745964187 98.0
30.750888043 105.0
30.755811900 109.0
30.760735756 100.0
30.765659612 96.0
30.770583468 94.0
30.775507324 109.0
30.780431180 81.0
30.785355036 107.0
30.790278892 101.0
30.795202748 104.0
30.800126604 111.0
30.805050460 90.0
30.809974316 104.0
30.814898172 80.0
30.819822028 99.0
30.824745884 119.0
30.829669740 78.0
30.834593596 96.0
30.839517452 85.0
30.844441308 97.0
30.849365164 121.0
30.854289020 111.0
30.859212876 96.0
30.864136732 102.0
30.869060588 102.0
30.873984444 102.0
30.878908300 87.0
30.883832156 110.0
30.888756012 121.0
30.893679868 98.0
30.898603724 105.0
30.903527580 84.0
30.908451436 93.0
30.913375292 96.0
30.918299148 102.0
30.923223004 112.0
30.928146860 90.0
30.933070716 105.0
30.937994572 111.0
30.942918428 120.0
30.947842284 108.0
30.952766140 98.0
30.957689996 112.0
30.962613852 108.0
30.967537708 79.0
30.972461564 105.0
30.977385420 93.0
30.982309276 127.0
30.987233132 107.0
30.992156988 95.0
30.997080844 99.0
31.002004700 92.0
31.006928556 106.0
31.011852412 115.0
31.016776268 108.0
31.021700124 108.0
31.026623980 106.0
31.031547836 120.0
31.036471692 102.0
31.041395548 91.0
31.046319404 95.0
31.051243260 98.0
31.056167116 104.0
31.061090972 105.0
31.066014828 101.0
31.070938684 93.0
31.075862540 88.0
31.080786396 101.0
31.085710252 101.0
31.090634108 116.0
31.095557964 114.0
31.100481820 97.0
31.105405676 101.0
31.110329532 95.0
31.115253388 111.0
31.120177244 108.0
31.125101100 107.0
31.130024956 99.0
31.134948812 106.0
31.139872668 98.0
31.144796524 119.0
31.149720380 114.0
31.154644236 94.0
31.159568092 107.0
31.164491948 112.0
31.169415804 100.0
31.174339660 105.0
31.179263516 109.0
31.184187372 111.0
31.189111228 99.0
31.194035084 86.0
31.198958940 106.0
31.203882796 105.0
31.208806652 101.0
31.213730508 107.0
31.218654364 93.0
31.223578220 94.0
31.228502076 90.0
31.233425932 98.0
31.238349788 98.0
31.243273644 86.0
31.248197500 124.0
31.253121357 99.0
31.258045213 94.0
31.262969069 92.0
31.267892925 95.0
31.272816781 88.0
31.277740637 105.0
31.282664493 94.0
31.287588349 81.0
31.292512205 100.0
31.297436061 98.0
31.302359917 100.0
31.307283773 96.0
31.312207629 104.0
31.317131485 104.0
31.322055341 89.0
31.326979197 122.0
31.331903053 112.0
31.336826909 79.0
31.341750765 117.0
31.346674621 115.0
31.351598477 96.0
31.356522333 122.0
31.361446189 106.0
31.366370045 97.0
31.371293901 92.0
31.376217757 103.0
31.381141613 95.0
31.386065469 107.0
31.390989325 101.0
31.395913181 105.0
31.400837037 118.0
31.405760893 89.0
31.410684749 102.0
31.415608605 105.0
31.420532461 97.0
31.425456317 96.0
31.430380173 121.0
31.435304029 100.0
31.440227885 106.0
31.445151741 110.0
31.450075597 90.0
31.454999453 105.0
31.459923309 116.0
31.464847165 120.0
31.469771021 109.0
31.474694877 89.0
31.479618733 87.0
31.484542589 70.0
31.489466445 95.0
31.494390301 117.0
31.499314157 112.0
31.504238013 111.0
31.509161869 97.0
31.514085725 109.0
31.519009581 101.0
31.523933437 108.0
31.528857293 110.0
31.533781149 107.0
31.538705005 91.0
31.543628861 112.0
31.548552717 108.0
31.553476573 96.0
31.558400429 94.0
31.563324285 102.0
31.568248141 92.0
31.573171997 81.0
31.578095853 112.0
31.583019709 110.0
31.587943565 120.0
31.592867421 91.0
31.597791277 97.0
31.602715133 92.0
31.607638989 107.0
31.612562845 108.0
31.617486701 80.0
31.622410557 104.0
31.627334413 107.0
31.632258269 111.0
31.637182125 121.0
31.642105981 108.0
31.647029837 97.0
31.651953693 101.0
31.656877549 117.0
31.661801405 96.0
31.666725261 81.0
31.671649117 105.0
31.676572973 100.0
31.681496829 99.0
31.686420685 109.0
31.691344541 114.0
31.696268397 83.0
31.701192253 94.0
31.706116109 80.0
31.711039965 130.0
31.715963821 97.0
31.720887677 109.0
31.725811533 100.0
31.730735389 98.0
31.735659245 104.0
31.740583101 102.0
31.745506957 105.0
31.750430813 109.0
31.755354670 102.0
31.760278526 97.0
31.765202382 99.0
31.770126238 91.0
31.775050094 103.0
31.779973950 101.0
31.784897806 94.0
31.789821662 101.0
31.794745518 103.0
31.799669374 93.0
31.804593230 104.0
31.809517086 109.0
31.814440942 80.0
31.819364798 113.0
31.824288654 86.0
31.829212510 99.0
31.834136366 89.0
31.839060222 97.0
31.843984078 93.0
31.848907934 95.0
31.853831790 105.0
31.858755646 116.0
31.863679502 103.0
31.868603358 91.0
31.873527214 97.0
31.878451070 112.0
31.883374926 98.0
31.888298782 114.0
31.893222638 107.0
31.898146494 100.0
31.903070350 111.0
31.907994206 100.0
31.912918062 103.0
31.917841918 116.0
31.922765774 122.0
31.927689630 80.0
31.932613486 121.0
31.937537342 107.0
31.942461198 96.0
31.947385054 90.0
31.952308910 112.0
31.957232766 88.0
31.962156622 97.0
31.967080478 103.0
31.972004334 120.0
31.976928190 99.0
31.981852046 106.0
31.986775902 121.0
31.991699758 90.0
31.996623614 127.0
32.001547470 114.0
32.006471326 93.0
32.011395182 90.0
32.016319038 135.0
32.021242894 113.0
32.026166750 99.0
32.031090606 104.0
32.036014462 107.0
32.040938318 89.0
32.045862174 108.0
32.050786030 99.0
32.055709886 109.0
32.060633742 88.0
32.065557598 100.0
32.070481454 98.0
32.075405310 94.0
32.080329166 126.0
32.085253022 100.0
32.090176878 99.0
32.095100734 116.0
32.100024590 103.0
32.104948446 103.0
32.109872302 106.0
32.114796158 135.0
32.119720014 104.0
32.124643870 103.0
32.129567726 93.0
32.134491582 114.0
32.139415438 99.0
32.144339294 89.0
32.149263150 115.0
32.154187006 110.0
32.159110862 116.0
32.164034718 94.0
32.168958574 116.0
32.173882430 110.0
32.178806286 114.0
32.183730142 104.0
32.188653998 96.0
32.193577854 116.0
32.198501710 101.0
32.203425566 120.0
32.208349422 96.0
32.213273278 103.0
32.218197134 106.0
32.223120990 92.0
32.228044846 106.0
32.232968702 91.0
32.237892558 91.0
32.242816414 102.0
32.247740270 95.0
32.252664127 109.0
32.257587983 98.0
32.262511839 81.0
32.267435695 104.0
32.272359551 107.0
32.277283407 103.0
32.282207263 94.0
32.287131119 96.0
32.292054975 107.0
32.296978831 110.0
32.301902687 105.0
32.306826543 100.0
32.311750399 116.0
32.316674255 99.0
32.321598111 101.0
32.326521967 90.0
32.331445823 111.0
32.336369679 110.0
32.341293535 96.0
32.346217391 86.0
32.351141247 107.0
32.356065103 105.0
32.360988959 105.0
32.365912815 93.0
32.370836671 101.0
32.375760527 92.0
32.380684383 112.0
32.385608239 106.0
32.390532095 105.0
32.395455951 110.0
32.400379807 96.0
32.405303663 102.0
32.410227519 97.0
32.415151375 103.0
32.420075231 100.0
32.424999087 102.0
32.429922943 107.0
32.434846799 92.0
32.439770655 106.0
32.444694511 113.0
32.449618367 86.0
32.454542223 108.0
32.459466079 91.0
32.464389935 109.0
32.469313791 101.0
32.474237647 100.0
32.479161503 103.0
32.484085359 119.0
32.489009215 108.0
32.493933071 101.0
32.498856927 126.0
32.503780783 110.0
32.508704639 104.0
32.513628495 93.0
32.518552351 107.0
32.523476207 114.0
32.528400063 108.0
32.533323919 115.0
32.538247775 98.0
32.543171631 89.0
32.548095487 116.0
32.553019343 109.0
32.557943199 103.0
32.562867055 102.0
32.567790911 105.0
32.572714767 88.0
32.577638623 104.0
32.582562479 92.0
32.587486335 97.0
32.592410191 89.0
32.597334047 121.0
32.602257903 111.0
32.607181759 109.0
32.612105615 100.0
32.617029471 105.0
32.621953327 103.0
32.626877183 112.0
32.631801039 112.0
32.636724895 103.0
32.641648751 93.0
32.646572607 99.0
32.651496463 109.0
32.656420319 89.0
32.661344175 124.0
32.666268031 98.0
32.671191887 111.0
32.676115743 102.0
32.681039599 116.0
32.685963455 90.0
32.690887311 108.0
32.695811167 92.0
32.700735023 116.0
32.705658879 106.0
32.710582735 122.0
32.715506591 112.0
32.720430447 109.0
32.725354303 98.0
32.730278159 100.0
32.735202015 86.0
32.740125871 101.0
32.745049727 105.0
32.749973583 93.0
32.754897440 117.0
32.759821296 105.0
32.764745152 129.0
32.769669008 120.0
32.774592864 104.0
32.779516720 84.0
32.784440576 110.0
32.789364432 102.0
32.794288288 113.0
32.799212144 90.0
32.804136000 112.0
32.809059856 117.0
32.813983712 103.0
32.818907568 104.0
32.823831424 104.0
32.828755280 86.0
32.833679136 106.0
32.838602992 107.0
32.843526848 106.0
32.848450704 87.0
32.853374560 93.0
32.858298416 104.0
32.863222272 87.0
32.868146128 93.0
32.873069984 99.0
32.877993840 111.0
32.882917696 126.0
32.887841552 93.0
32.892765408 85.0
32.897689264 99.0
32.902613120 111.0
32.907536976 105.0
32.912460832 96.0
32.917384688 96.0
32.922308544 96.0
32.927232400 104.0
32.932156256 104.0
32.937080112 93.0
32.942003968 115.0
32.946927824 112.0
32.951851680 113.0
32.956775536 95.0
32.961699392 93.0
32.966623248 83.0
32.971547104 109.0
32.976470960 103.0
32.981394816 117.0
32.986318672 105.0
32.991242528 104.0
32.996166384 99.0
33.001090240 126.0
33.006014096 100.0
33.010937952 99.0
33.015861808 99.0
33.020785664 112.0
33.025709520 109.0
33.030633376 120.0
33.035557232 88.0
33.040481088 118.0
33.045404944 117.0
33.050328800 101.0
33.055252656 116.0
33.060176512 90.0
33.065100368 106.0
33.070024224 113.0
33.074948080 101.0
33.079871936 113.0
33.084795792 98.0
33.089719648 95.0
33.094643504 79.0
33.099567360 108.0
33.104491216 105.0
33.109415072 83.0
33.114338928 117.0
33.119262784 115.0
33.124186640 99.0
33.129110496 112.0
33.134034352 93.0
33.138958208 104.0
33.143882064 120.0
33.148805920 105.0
33.153729776 101.0
33.158653632 126.0
33.163577488 114.0
33.168501344 108.0
33.173425200 116.0
33.178349056 107.0
33.183272912 113.0
33.188196768 107.0
33.193120624 116.0
33.198044480 109.0
33.202968336 101.0
33.207892192 112.0
33.212816048 106.0
33.217739904 94.0
33.222663760 96.0
33.227587616 115.0
33.232511472 93.0
33.237435328 102.0
33.242359184 91.0
33.247283040 104.0
33.252206897 97.0
33.257130753 104.0
33.262054609 102.0
33.266978465 96.0
33.271902321 85.0
33.276826177 95.0
33.281750033 95.0
33.286673889 110.0
33.291597745 100.0
33.296521601 97.0
33.301445457 97.0
33.306369313 108.0
33.311293169 100.0
33.316217025 110.0
33.321140881 105.0
33.326064737 96.0
33.330988593 106.0
33.335912449 119.0
33.340836305 80.0
33.345760161 102.0
33.350684017 98.0
33.355607873 115.0
33.360531729 101.0
33.365455585 101.0
33.370379441 120.0
33.375303297 101.0
33.380227153 98.0
33.385151009 100.0
33.390074865 101.0
33.394998721 106.0
33.399922577 114.0
33.404846433 112.0
33.409770289 101.0
33.414694145 74.0
33.419618001 98.0
33.424541857 113.0
33.429465713 93.0
33.434389569 119.0
33.439313425 112.0
33.444237281 100.0
33.449161137 88.0
33.454084993 121.0
33.459008849 120.0
33.463932705 109.0
33.468856561 110.0
33.473780417 110.0
33.478704273 87.0
33.483628129 102.0
33.488551985 113.0
33.493475841 109.0
33.498399697 98.0
33.503323553 94.0
33.508247409 107.0
33.513171265 104.0
33.518095121 103.0
33.523018977 111.0
33.527942833 88.0
33.532866689 97.0
33.537790545 106.0
33.542714401 95.0
33.547638257 121.0
33.552562113 113.0
33.557485969 110.0
33.562409825 116.0
33.567333681 92.0
33.572257537 116.0
33.577181393 118.0
33.582105249 109.0
33.587029105 122.0
33.591952961 111.0
33.596876817 131.0
33.601800673 118.0
33.606724529 114.0
33.611648385 112.0
33.616572241 111.0
33.621496097 113.0
33.626419953 118.0
33.631343809 135.0
33.636267665 109.0
33.641191521 121.0
33.646115377 126.0
33.651039233 129.0
33.655963089 131.0
33.660886945 113.0
33.665810801 120.0
33.670734657 114.0
33.675658513 112.0
33.680582369 133.0
33.685506225 121.0
33.690430081 117.0
33.695353937 120.0
33.700277793 128.0
33.705201649 128.0
33.710125505 99.0
33.715049361 108.0
33.719973217 116.0
33.724897073 108.0
33.729820929 124.0
33.734744785 123.0
33.739668641 131.0
33.744592497 120.0
33.749516353 119.0
33.754440210 119.0
33.759364066 113.0
33.764287922 121.0
33.769211778 125.0
33.774135634 121.0
33.779059490 151.0
33.783983346 121.0
33.788907202 123.0
33.793831058 131.0
33.798754914 110.0
33.803678770 126.0
33.808602626 138.0
33.813526482 129.0
33.818450338 126.0
33.823374194 158.0
33.828298050 135.0
33.833221906 152.0
33.838145762 134.0
33.843069618 152.0
33.847993474 154.0
33.852917330 172.0
33.857841186 187.0
33.862765042 217.0
33.867688898 264.0
33.872612754 303.0
33.877536610 427.0
33.882460466 500.0
33.887384322 719.0
33.892308178 839.0
33.897232034 1004.0
33.902155890 1027.0
33.907079746 1177.0
33.912003602 1287.0
33.916927458 1247.0
33.921851314 1181.0
33.926775170 1188.0
33.931699026 1064.0
33.936622882 895.0
33.941546738 790.0
33.946470594 630.0
33.951394450 529.0
33.956318306 433.0
33.961242162 387.0
33.966166018 306.0
33.971089874 291.0
33.976013730 214.0
33.980937586 281.0
33.985861442 180.0
33.990785298 196.0
33.995709154 149.0
34.000633010 164.0
34.005556866 154.0
34.010480722 172.0
34.015404578 162.0
34.020328434 160.0
34.025252290 151.0
34.030176146 113.0
34.035100002 152.0
34.040023858 141.0
34.044947714 146.0
34.049871570 139.0
34.054795426 150.0
34.059719282 122.0
34.064643138 141.0
34.069566994 128.0
34.074490850 146.0
34.079414706 138.0
34.084338562 139.0
34.089262418 140.0
34.094186274 131.0
34.099110130 153.0
34.104033986 133.0
34.108957842 151.0
34.113881698 132.0
34.118805554 112.0
34.123729410 134.0
34.128653266 132.0
34.133577122 132.0
34.138500978 142.0
34.143424834 135.0
34.148348690 125.0
34.153272546 127.0
34.158196402 125.0
34.163120258 143.0
34.168044114 146.0
34.172967970 151.0
34.177891826 134.0
34.182815682 128.0
34.187739538 148.0
34.192663394 137.0
34.197587250 126.0
34.202511106 138.0
34.207434962 119.0
34.212358818 122.0
34.217282674 131.0
34.222206530 143.0
34.227130386 144.0
34.232054242 143.0
34.236978098 126.0
34.241901954 147.0
34.246825810 136.0
34.251749667 134.0
34.256673523 164.0
34.261597379 135.0
34.266521235 135.0
34.271445091 142.0
34.276368947 132.0
34.281292803 147.0
34.286216659 122.0
34.291140515 127.0
34.296064371 141.0
34.300988227 130.0
34.305912083 174.0
34.310835939 130.0
34.315759795 133.0
34.320683651 130.0
34.325607507 128.0
34.330531363 130.0
34.335455219 133.0
34.340379075 138.0
34.345302931 137.0
34.350226787 146.0
34.355150643 146.0
34.360074499 119.0
34.364998355 166.0
34.369922211 152.0
34.374846067 150.0
34.379769923 141.0
34.384693779 122.0
34.389617635 163.0
34.394541491 144.0
34.399465347 139.0
34.404389203 139.0
34.409313059 155.0
34.414236915 131.0
34.419160771 130.0
34.424084627 155.0
34.429008483 145.0
34.433932339 135.0
34.438856195 119.0
34.443780051 152.0
34.448703907 147.0
34.453627763 133.0
34.458551619 149.0
34.463475475 134.0
34.468399331 129.0
34.473323187 151.0
34.478247043 123.0
34.483170899 137.0
34.488094755 147.0
34.493018611 127.0
34.497942467 148.0
34.502866323 138.0
34.507790179 134.0
34.512714035 128.0
34.517637891 146.0
34.522561747 153.0
34.527485603 132.0
34.532409459 115.0
34.537333315 126.0
34.542257171 128.0
34.547181027 139.0
34.552104883 137.0
34.557028739 146.0
34.561952595 139.0
34.566876451 132.0
34.571800307 124.0
34.576724163 136.0
34.581648019 147.0
34.586571875 125.0
34.591495731 139.0
34.596419587 122.0
34.601343443 148.0
34.606267299 143.0
34.611191155 144.0
34.616115011 128.0
34.621038867 140.0
34.625962723 147.0
34.630886579 124.0
34.635810435 161.0
34.640734291 136.0
34.645658147 145.0
34.650582003 132.0
34.655505859 145.0
34.660429715 133.0
34.665353571 130.0
34.670277427 124.0
34.675201283 117.0
34.680125139 143.0
34.685048995 139.0
34.689972851 126.0
34.694896707 141.0
34.699820563 144.0
34.704744419 134.0
34.709668275 148.0
34.714592131 148.0
34.719515987 153.0
34.724439843 154.0
34.729363699 130.0
34.734287555 167.0
34.739211411 141.0
34.744135267 172.0
34.749059123 154.0
34.753982980 151.0
34.758906836 158.0
34.763830692 172.0
34.768754548 168.0
34.773678404 165.0
34.778602260 156.0
34.783526116 149.0
34.788449972 169.0
34.793373828 172.0
34.798297684 167.0
34.803221540 160.0
34.808145396 179.0
34.813069252 139.0
34.817993108 172.0
34.822916964 156.0
34.827840820 171.0
34.832764676 174.0
34.837688532 170.0
34.842612388 178.0
34.847536244 167.0
34.852460100 181.0
34.857383956 166.0
34.862307812 166.0
34.867231668 181.0
34.872155524 193.0
34.877079380 189.0
34.882003236 169.0
34.886927092 165.0
34.891850948 177.0
34.896774804 203.0
34.901698660 186.0
34.906622516 192.0
34.911546372 175.0
34.916470228 177.0
34.921394084 154.0
34.926317940 192.0
34.931241796 188.0
34.936165652 182.0
34.941089508 201.0
34.946013364 183.0
34.950937220 202.0
34.955861076 197.0
34.960784932 196.0
34.965708788 204.0
34.970632644 178.0
34.975556500 198.0
34.980480356 193.0
34.985404212 170.0
34.990328068 194.0
34.995251924 195.0
35.000175780 171.0
35.005099636 172.0
35.010023492 181.0
35.014947348 174.0
35.019871204 185.0
35.024795060 171.0
35.029718916 203.0
35.034642772 181.0
35.039566628 185.0
35.044490484 185.0
35.049414340 197.0
35.054338196 189.0
35.059262052 176.0
35.064185908 174.0
35.069109764 180.0
35.074033620 176.0
35.078957476 198.0
35.083881332 208.0
35.088805188 207.0
35.093729044 178.0
35.098652900 180.0
35.103576756 186.0
35.108500612 193.0
35.113424468 182.0
35.118348324 155.0
35.123272180 178.0
35.128196036 201.0
35.133119892 158.0
35.138043748 180.0
35.142967604 158.0
35.147891460 202.0
35.152815316 155.0
35.157739172 168.0
35.162663028 169.0
35.167586884 163.0
35.172510740 186.0
35.177434596 177.0
35.182358452 181.0
35.187282308 178.0
35.192206164 199.0
35.197130020 168.0
35.202053876 186.0
35.206977732 210.0
35.211901588 188.0
35.216825444 166.0
35.221749300 192.0
35.226673156 208.0
35.231597012 192.0
35.236520868 203.0
35.241444724 190.0
35.246368580 228.0
35.251292437 270.0
35.256216293 204.0
35.261140149 228.0
35.266064005 221.0
35.270987861 226.0
35.275911717 218.0
35.280835573 280.0
35.285759429 230.0
35.290683285 265.0
35.295607141 299.0
35.300530997 263.0
35.305454853 274.0
35.310378709 288.0
35.315302565 278.0
35.320226421 351.0
35.325150277 302.0
35.330074133 343.0
35.334997989 329.0
35.339921845 340.0
35.344845701 364.0
35.349769557 407.0
35.354693413 374.0
35.359617269 383.0
35.364541125 395.0
35.369464981 398.0
35.374388837 380.0
35.379312693 421.0
35.384236549 425.0
35.389160405 442.0
35.394084261 414.0
35.399008117 484.0
35.403931973 484.0
35.408855829 463.0
35.413779685 438.0
35.418703541 533.0
35.423627397 493.0
35.428551253 558.0
35.433475109 525.0
35.438398965 589.0
35.443322821 552.0
35.448246677 560.0
35.453170533 599.0
35.458094389 594.0
35.463018245 630.0
35.467942101 646.0
35.472865957 639.0
35.477789813 621.0
35.482713669 630.0
35.487637525 691.0
35.492561381 721.0
35.497485237 722.0
35.502409093 749.0
35.507332949 714.0
35.512256805 777.0
35.517180661 792.0
35.522104517 772.0
35.527028373 761.0
35.531952229 786.0
35.536876085 813.0
35.541799941 889.0
35.546723797 842.0
35.551647653 771.0
35.556571509 885.0
35.561495365 814.0
35.566419221 898.0
35.571343077 830.0
35.576266933 929.0
35.581190789 873.0
35.586114645 977.0
35.591038501 897.0
35.595962357 978.0
35.600886213 961.0
35.605810069 1006.0
35.610733925 961.0
35.615657781 972.0
35.620581637 1003.0
35.625505493 910.0
35.630429349 1002.0
35.635353205 1010.0
35.640277061 1072.0
35.645200917 962.0
35.650124773 1102.0
35.655048629 1031.0
35.659972485 1089.0
35.664896341 964.0
35.669820197 1058.0
35.674744053 1037.0
35.679667909 1069.0
35.684591765 1083.0
35.689515621 1081.0
35.694439477 1063.0
35.699363333 1051.0
35.704287189 1047.0
35.709211045 1083.0
35.714134901 1111.0
35.719058757 1119.0
35.723982613 1088.0
35.728906469 1036.0
35.733830325 1070.0
35.738754181 1049.0
35.743678037 1054.0
35.748601893 1100.0
35.753525750 1098.0
35.758449606 1054.0
35.763373462 1096.0
35.768297318 1060.0
35.773221174 1022.0
35.778145030 1029.0
35.783068886 999.0
35.787992742 1025.0
35.792916598 1078.0
35.797840454 998.0
35.802764310 955.0
35.807688166 980.0
35.812612022 978.0
35.817535878 972.0
35.822459734 936.0
35.827383590 962.0
35.832307446 941.0
35.837231302 972.0
35.842155158 989.0
35.847079014 918.0
35.852002870 921.0
35.856926726 943.0
35.861850582 925.0
35.866774438 842.0
35.871698294 868.0
35.876622150 788.0
35.881546006 812.0
35.886469862 816.0
35.891393718 829.0
35.896317574 817.0
35.901241430 876.0
35.906165286 780.0
35.911089142 834.0
35.916012998 783.0
35.920936854 745.0
35.925860710 715.0
35.930784566 745.0
35.935708422 736.0
35.940632278 670.0
35.945556134 680.0
35.950479990 714.0
35.955403846 676.0
35.960327702 618.0
35.965251558 655.0
35.970175414 680.0
35.975099270 641.0
35.980023126 655.0
35.984946982 637.0
35.989870838 525.0
35.994794694 568.0
35.999718550 573.0
36.004642406 541.0
36.009566262 536.0
36.014490118 548.0
36.019413974 537.0
36.024337830 508.0
36.029261686 510.0
36.034185542 517.0
36.039109398 507.0
36.044033254 533.0
36.048957110 514.0
36.053880966 470.0
36.058804822 491.0
36.063728678 462.0
36.068652534 437.0
36.073576390 398.0
36.078500246 400.0
36.083424102 398.0
36.088347958 392.0
36.093271814 372.0
36.098195670 343.0
36.103119526 390.0
36.108043382 360.0
36.112967238 362.0
36.117891094 368.0
36.122814950 345.0
36.127738806 331.0
36.132662662 335.0
36.137586518 325.0
36.142510374 316.0
36.147434230 321.0
36.152358086 283.0
36.157281942 299.0
36.162205798 283.0
36.167129654 329.0
36.172053510 225.0
36.176977366 284.0
36.181901222 302.0
36.186825078 220.0
36.191748934 267.0
36.196672790 235.0
36.201596646 219.0
36.206520502 301.0
36.211444358 213.0
36.216368214 260.0
36.221292070 233.0
36.226215926 214.0
36.231139782 225.0
36.236063638 269.0
36.240987494 220.0
36.245911350 203.0
36.250835207 211.0
36.255759063 193.0
36.260682919 207.0
36.265606775 209.0
36.270530631 208.0
36.275454487 199.0
36.280378343 198.0
36.285302199 212.0
36.290226055 190.0
36.295149911 187.0
36.300073767 203.0
36.304997623 201.0
36.309921479 209.0
36.314845335 218.0
36.319769191 190.0
36.324693047 207.0
36.329616903 202.0
36.334540759 198.0
36.339464615 198.0
36.344388471 194.0
36.349312327 221.0
36.354236183 236.0
36.359160039 196.0
36.364083895 227.0
36.369007751 208.0
36.373931607 231.0
36.378855463 207.0
36.383779319 198.0
36.388703175 200.0
36.393627031 205.0
36.398550887 205.0
36.403474743 202.0
36.408398599 195.0
36.413322455 172.0
36.418246311 181.0
36.423170167 202.0
36.428094023 219.0
36.433017879 198.0
36.437941735 189.0
36.442865591 185.0
36.447789447 224.0
36.452713303 211.0
36.457637159 198.0
36.462561015 198.0
36.467484871 206.0
36.472408727 206.0
36.477332583 203.0
36.482256439 223.0
36.487180295 203.0
36.492104151 203.0
36.497028007 181.0
36.501951863 185.0
36.506875719 197.0
36.511799575 196.0
36.516723431 201.0
36.521647287 183.0
36.526571143 216.0
36.531494999 216.0
36.536418855 180.0
36.541342711 182.0
36.546266567 221.0
36.551190423 187.0
36.556114279 200.0
36.561038135 206.0
36.565961991 205.0
36.570885847 192.0
36.575809703 214.0
36.580733559 209.0
36.585657415 215.0
36.590581271 213.0
36.595505127 191.0
36.600428983 196.0
36.605352839 206.0
36.610276695 211.0
36.615200551 207.0
36.620124407 206.0
36.625048263 207.0
36.629972119 214.0
36.634895975 272.0
36.639819831 220.0
36.644743687 257.0
36.649667543 200.0
36.654591399 202.0
36.659515255 261.0
36.664439111 208.0
36.669362967 234.0
36.674286823 227.0
36.679210679 263.0
36.684134535 206.0
36.689058391 223.0
36.693982247 219.0
36.698906103 202.0
36.703829959 258.0
36.708753815 255.0
36.713677671 215.0
36.718601527 265.0
36.723525383 273.0
36.728449239 205.0
36.733373095 290.0
36.738296951 219.0
36.743220807 263.0
36.748144663 200.0
36.753068520 296.0
36.757992376 215.0
36.762916232 230.0
36.767840088 273.0
36.772763944 274.0
36.777687800 201.0
36.782611656 277.0
36.787535512 259.0
36.792459368 258.0
36.797383224 314.0
36.802307080 272.0
36.807230936 290.0
36.812154792 269.0
36.817078648 306.0
36.822002504 300.0
36.826926360 310.0
36.831850216 216.0
36.836774072 308.0
36.841697928 296.0
36.846621784 319.0
36.851545640 296.0
36.856469496 327.0
36.861393352 307.0
36.866317208 300.0
36.871241064 330.0
36.876164920 314.0
36.881088776 328.0
36.886012632 319.0
36.890936488 352.0
36.895860344 329.0
36.900784200 354.0
36.905708056 308.0
36.910631912 320.0
36.915555768 355.0
36.920479624 341.0
36.925403480 347.0
36.930327336 384.0
36.935251192 343.0
36.940175048 319.0
36.945098904 386.0
36.950022760 370.0
36.954946616 332.0
36.959870472 400.0
36.964794328 346.0
36.969718184 359.0
36.974642040 368.0
36.979565896 346.0
36.984489752 343.0
36.989413608 391.0
36.994337464 388.0
36.999261320 402.0
37.004185176 403.0
37.009109032 361.0
37.014032888 380.0
37.018956744 395.0
37.023880600 419.0
37.028804456 403.0
37.033728312 405.0
37.038652168 427.0
37.043576024 389.0
37.048499880 427.0
37.053423736 418.0
37.058347592 429.0
37.063271448 416.0
37.068195304 412.0
37.073119160 401.0
37.078043016 463.0
37.082966872 418.0
37.087890728 438.0
37.092814584 419.0
37.097738440 421.0
37.102662296 454.0
37.107586152 461.0
37.112510008 457.0
37.117433864 472.0
37.122357720 454.0
37.127281576 429.0
37.132205432 432.0
37.137129288 476.0
37.142053144 495.0
37.146977000 488.0
37.151900856 432.0
37.156824712 524.0
37.161748568 499.0
37.166672424 497.0
37.171596280 491.0
37.176520136 508.0
37.181443992 521.0
37.186367848 520.0
37.191291704 520.0
37.196215560 562.0
37.201139416 527.0
37.206063272 579.0
37.210987128 569.0
37.215910984 515.0
37.220834840 580.0
37.225758696 596.0
37.230682552 590.0
37.235606408 585.0
37.240530264 608.0
37.245454120 661.0
37.250377977 650.0
37.255301833 618.0
37.260225689 646.0
37.265149545 677.0
37.270073401 681.0
37.274997257 666.0
37.279921113 705.0
37.284844969 621.0
37.289768825 652.0
37.294692681 754.0
37.299616537 727.0
37.304540393 742.0
37.309464249 750.0
37.314388105 725.0
37.319311961 778.0
37.324235817 793.0
37.329159673 777.0
37.334083529 762.0
37.339007385 813.0
37.343931241 778.0
37.348855097 869.0
37.353778953 866.0
37.358702809 858.0
37.363626665 865.0
37.368550521 888.0
37.373474377 871.0
37.378398233 952.0
37.383322089 944.0
37.388245945 1014.0
37.393169801 1003.0
37.398093657 1047.0
37.403017513 1032.0
37.407941369 1113.0
37.412865225 1169.0
37.417789081 1110.0
37.422712937 1208.0
37.427636793 1231.0
37.432560649 1339.0
37.437484505 1354.0
37.442408361 1502.0
37.447332217 1654.0
37.452256073 1750.0
37.457179929 1800.0
37.462103785 2058.0
37.467027641 2198.0
37.471951497 2490.0
37.476875353 2521.0
37.481799209 2939.0
37.486723065 3045.0
37.491646921 3235.0
37.496570777 3453.0
37.501494633 3537.0
37.506418489 3747.0
37.511342345 3552.0
37.516266201 3809.0
37.521190057 3703.0
37.526113913 3839.0
37.531037769 3844.0
37.535961625 3698.0
37.540885481 3791.0
37.545809337 3567.0
37.550733193 3911.0
37.555657049 3833.0
37.560580905 4148.0
37.565504761 4291.0
37.570428617 4442.0
37.575352473 5013.0
37.580276329 5167.0
37.585200185 6296.0
37.590124041 6441.0
37.595047897 7897.0
37.599971753 8395.0
37.604895609 10540.0
37.609819465 11876.0
37.614743321 14968.0
37.619667177 18863.0
37.624591033 24730.0
37.629514889 36865.0
37.634438745 50744.0
37.639362601 100264.0
37.644286457 128862.0
37.649210313 198114.0
37.654134169 225373.0
37.659058025 251726.0
37.663981881 261602.0
37.668905737 267876.0
37.673829593 268551.0
37.678753449 262233.0
37.683677305 256594.0
37.688601161 212699.0
37.693525017 186977.0
37.698448873 113298.0
37.703372729 79801.0
37.708296585 54172.0
37.713220441 37307.0
37.718144297 33878.0
37.723068153 28272.0
37.727992009 34023.0
37.732915865 41471.0
37.737839721 57863.0
37.742763577 85633.0
37.747687433 99246.0
37.752611290 124306.0
37.757535146 128197.0
37.762459002 138185.0
37.767382858 135739.0
37.772306714 138546.0
37.777230570 132317.0
37.782154426 125753.0
37.787078282 108749.0
37.792002138 79904.0
37.796925994 65031.0
37.801849850 35236.0
37.806773706 29342.0
37.811697562 17032.0
37.816621418 14965.0
37.821545274 10178.0
37.826469130 9177.0
37.831392986 7269.0
37.836316842 6716.0
37.841240698 5693.0
37.846164554 5268.0
37.851088410 4693.0
37.856012266 4422.0
37.860936122 3993.0
37.865859978 3689.0
37.870783834 3583.0
37.875707690 3166.0
37.880631546 3011.0
37.885555402 2927.0
37.890479258 2795.0
37.895403114 2527.0
37.900326970 2581.0
37.905250826 2329.0
37.910174682 2236.0
37.915098538 2217.0
37.920022394 2116.0
37.924946250 1992.0
37.929870106 1955.0
37.934793962 1780.0
37.939717818 1839.0
37.944641674 1744.0
37.949565530 1677.0
37.954489386 1643.0
37.959413242 1628.0
37.964337098 1514.0
37.969260954 1552.0
37.974184810 1427.0
37.979108666 1435.0
37.984032522 1346.0
37.988956378 1324.0
37.993880234 1304.0
37.998804090 1226.0
38.003727946 1301.0
38.008651802 1219.0
38.013575658 1150.0
38.018499514 1120.0
38.023423370 1160.0
38.028347226 1023.0
38.033271082 1083.0
38.038194938 1142.0
38.043118794 1050.0
38.048042650 1068.0
38.052966506 1030.0
38.057890362 1024.0
38.062814218 985.0
38.067738074 993.0
38.072661930 975.0
38.077585786 946.0
38.082509642 962.0
38.087433498 908.0
38.092357354 906.0
38.097281210 869.0
38.102205066 885.0
38.107128922 834.0
38.112052778 873.0
38.116976634 839.0
38.121900490 799.0
38.126824346 827.0
38.131748202 752.0
38.136672058 792.0
38.141595914 778.0
38.146519770 809.0
38.151443626 766.0
38.156367482 768.0
38.161291338 726.0
38.166215194 727.0
38.171139050 700.0
38.176062906 696.0
38.180986762 679.0
38.185910618 701.0
38.190834474 675.0
38.195758330 689.0
38.200682186 643.0
38.205606042 644.0
38.210529898 601.0
38.215453754 565.0
38.220377610 612.0
38.225301466 581.0
38.230225322 588.0
38.235149178 609.0
38.240073034 590.0
38.244996890 567.0
38.249920747 555.0
38.254844603 571.0
38.259768459 582.0
38.264692315 484.0
38.269616171 512.0
38.274540027 544.0
38.279463883 518.0
38.284387739 517.0
38.289311595 494.0
38.294235451 546.0
38.299159307 495.0
38.304083163 466.0
38.309007019 478.0
38.313930875 522.0
38.318854731 460.0
38.323778587 505.0
38.328702443 472.0
38.333626299 444.0
38.338550155 443.0
38.343474011 470.0
38.348397867 482.0
38.353321723 394.0
38.358245579 422.0
38.363169435 398.0
38.368093291 395.0
38.373017147 401.0
38.377941003 398.0
38.382864859 399.0
38.387788715 409.0
38.392712571 411.0
38.397636427 403.0
38.402560283 375.0
38.407484139 347.0
38.412407995 368.0
38.417331851 364.0
38.422255707 363.0
38.427179563 352.0
38.432103419 352.0
38.437027275 332.0
38.441951131 320.0
38.446874987 364.0
38.451798843 355.0
38.456722699 362.0
38.461646555 296.0
38.466570411 333.0
38.471494267 290.0
38.476418123 292.0
38.481341979 312.0
38.486265835 331.0
38.491189691 326.0
38.496113547 328.0
38.501037403 322.0
38.505961259 311.0
38.510885115 310.0
38.515808971 312.0
38.520732827 285.0
38.525656683 323.0
38.530580539 286.0
38.535504395 278.0
38.540428251 293.0
38.545352107 275.0
38.550275963 286.0
38.555199819 287.0
38.560123675 281.0
38.565047531 225.0
38.569971387 269.0
38.574895243 270.0
38.579819099 273.0
38.584742955 287.0
38.589666811 275.0
38.594590667 259.0
38.599514523 211.0
38.604438379 206.0
38.609362235 203.0
38.614286091 211.0
38.619209947 226.0
38.624133803 217.0
38.629057659 188.0
38.633981515 196.0
38.638905371 215.0
38.643829227 261.0
38.648753083 258.0
38.653676939 257.0
38.658600795 188.0
38.663524651 200.0
38.668448507 209.0
38.673372363 216.0
38.678296219 187.0
38.683220075 177.0
38.688143931 200.0
38.693067787 214.0
38.697991643 192.0
38.702915499 209.0
38.707839355 218.0
38.712763211 198.0
38.717687067 194.0
38.722610923 204.0
38.727534779 200.0
38.732458635 183.0
38.737382491 177.0
38.742306347 178.0
38.747230203 196.0
38.752154060 171.0
38.757077916 181.0
38.762001772 192.0
38.766925628 166.0
38.771849484 174.0
38.776773340 157.0
38.781697196 183.0
38.786621052 189.0
38.791544908 192.0
38.796468764 177.0
38.801392620 173.0
38.806316476 171.0
38.811240332 159.0
38.816164188 180.0
38.821088044 161.0
38.826011900 156.0
38.830935756 167.0
38.835859612 180.0
38.840783468 178.0
38.845707324 148.0
38.850631180 157.0
38.855555036 151.0
38.860478892 156.0
38.865402748 163.0
38.870326604 172.0
38.875250460 162.0
38.880174316 152.0
38.885098172 149.0
38.890022028 153.0
38.894945884 176.0
38.899869740 179.0
38.904793596 159.0
38.909717452 157.0
38.914641308 159.0
38.919565164 180.0
38.924489020 141.0
38.929412876 137.0
38.934336732 157.0
38.939260588 146.0
38.944184444 164.0
38.949108300 144.0
38.954032156 153.0
38.958956012 154.0
38.963879868 150.0
38.968803724 114.0
38.973727580 150.0
38.978651436 163.0
38.983575292 149.0
38.988499148 135.0
38.993423004 151.0
38.998346860 136.0
39.003270716 136.0
39.008194572 149.0
39.013118428 179.0
39.018042284 155.0
39.022966140 134.0
39.027889996 165.0
39.032813852 145.0
39.037737708 141.0
39.042661564 162.0
39.047585420 152.0
39.052509276 157.0
39.057433132 155.0
39.062356988 139.0
39.067280844 134.0
39.072204700 154.0
39.077128556 151.0
39.082052412 148.0
39.086976268 136.0
39.091900124 158.0
39.096823980 148.0
39.101747836 165.0
39.106671692 137.0
39.111595548 149.0
39.116519404 137.0
39.121443260 132.0
39.126367116 127.0
39.131290972 133.0
39.136214828 150.0
39.141138684 137.0
39.146062540 143.0
39.150986396 151.0
39.155910252 148.0
39.160834108 155.0
39.165757964 123.0
39.170681820 125.0
39.175605676 118.0
39.180529532 132.0
39.185453388 146.0
39.190377244 145.0
39.195301100 120.0
39.200224956 136.0
39.205148812 116.0
39.210072668 142.0
39.214996524 141.0
39.219920380 130.0
39.224844236 134.0
39.229768092 141.0
39.234691948 153.0
39.239615804 135.0
39.244539660 150.0
39.249463517 143.0
39.254387373 124.0
39.259311229 145.0
39.264235085 121.0
39.269158941 141.0
39.274082797 138.0
39.279006653 137.0
39.283930509 140.0
39.288854365 109.0
39.293778221 116.0
39.298702077 147.0
39.303625933 151.0
39.308549789 107.0
39.313473645 130.0
39.318397501 148.0
39.323321357 126.0
39.328245213 139.0
39.333169069 142.0
39.338092925 147.0
39.343016781 137.0
39.347940637 137.0
39.352864493 127.0
39.357788349 143.0
39.362712205 124.0
39.367636061 129.0
39.372559917 120.0
39.377483773 110.0
39.382407629 129.0
39.387331485 130.0
39.392255341 123.0
39.397179197 132.0
39.402103053 140.0
39.407026909 115.0
39.411950765 147.0
39.416874621 143.0
39.421798477 129.0
39.426722333 137.0
39.431646189 141.0
39.436570045 151.0
39.441493901 117.0
39.446417757 122.0
39.451341613 141.0
39.456265469 121.0
39.461189325 137.0
39.466113181 126.0
39.471037037 140.0
39.475960893 111.0
39.480884749 121.0
39.485808605 119.0
39.490732461 136.0
39.495656317 105.0
39.500580173 122.0
39.505504029 112.0
39.510427885 136.0
39.515351741 111.0
39.520275597 117.0
39.525199453 118.0
39.530123309 119.0
39.535047165 120.0
39.539971021 112.0
39.544894877 137.0
39.549818733 109.0
39.554742589 124.0
39.559666445 130.0
39.564590301 124.0
39.569514157 136.0
39.574438013 124.0
39.579361869 131.0
39.584285725 125.0
39.589209581 116.0
39.594133437 148.0
39.599057293 133.0
39.603981149 127.0
39.608905005 136.0
39.613828861 119.0
39.618752717 133.0
39.623676573 142.0
39.628600429 118.0
39.633524285 126.0
39.638448141 121.0
39.643371997 107.0
39.648295853 107.0
39.653219709 131.0
39.658143565 116.0
39.663067421 117.0
39.667991277 117.0
39.672915133 134.0
39.677838989 126.0
39.682762845 99.0
39.687686701 127.0
39.692610557 124.0
39.697534413 116.0
39.702458269 124.0
39.707382125 139.0
39.712305981 135.0
39.717229837 113.0
39.722153693 120.0
39.727077549 133.0
39.732001405 128.0
39.736925261 127.0
39.741849117 120.0
39.746772973 110.0
39.751696830 143.0
39.756620686 127.0
39.761544542 104.0
39.766468398 112.0
39.771392254 83.0
39.776316110 138.0
39.781239966 143.0
39.786163822 114.0
39.791087678 139.0
39.796011534 106.0
39.800935390 137.0
39.805859246 114.0
39.810783102 121.0
39.815706958 119.0
39.820630814 124.0
39.825554670 117.0
39.830478526 107.0
39.835402382 141.0
39.840326238 102.0
39.845250094 121.0
39.850173950 110.0
39.855097806 112.0
39.860021662 129.0
39.864945518 125.0
39.869869374 130.0
39.874793230 151.0
39.879717086 115.0
39.884640942 120.0
39.889564798 135.0
39.894488654 127.0
39.899412510 146.0
39.904336366 97.0
39.909260222 108.0
39.914184078 102.0
39.919107934 103.0
39.924031790 114.0
39.928955646 135.0
39.933879502 120.0
39.938803358 123.0
39.943727214 122.0
39.948651070 125.0
39.953574926 107.0
39.958498782 125.0
39.963422638 109.0
39.968346494 100.0
39.973270350 125.0
39.978194206 100.0
39.983118062 124.0
39.988041918 125.0
39.992965774 107.0
39.997889630 141.0
