35.002061930 127.0
35.006985786 103.0
35.011909642 114.0
35.016833498 105.0
35.021757354 119.0
35.026681210 95.0
35.031605066 119.0
35.036528922 116.0
35.041452778 93.0
35.046376634 119.0
35.051300490 106.0
35.056224346 126.0
35.061148202 102.0
35.066072058 117.0
35.070995914 110.0
35.075919770 118.0
35.080843626 91.0
35.085767482 95.0
35.090691338 131.0
35.095615194 108.0
35.100539050 121.0
35.105462906 120.0
35.110386762 122.0
35.115310618 113.0
35.120234474 128.0
35.125158330 124.0
35.130082186 126.0
35.135006042 109.0
35.139929898 153.0
35.144853754 110.0
35.149777610 121.0
35.154701466 112.0
35.159625322 121.0
35.164549178 108.0
35.169473034 92.0
35.174396890 117.0
35.179320746 114.0
35.184244602 129.0
35.189168458 121.0
35.194092314 118.0
35.199016170 120.0
35.203940026 131.0
35.208863882 125.0
35.213787738 103.0
35.218711594 147.0
35.223635450 140.0
35.228559306 118.0
35.233483162 110.0
35.238407018 128.0
35.243330874 135.0
35.248254730 127.0
35.253178587 132.0
35.258102443 112.0
35.263026299 115.0
35.267950155 125.0
35.272874011 125.0
35.277797867 102.0
35.282721723 121.0
35.287645579 129.0
35.292569435 119.0
35.297493291 118.0
35.302417147 142.0
35.307341003 112.0
35.312264859 111.0
35.317188715 122.0
35.322112571 115.0
35.327036427 115.0
35.331960283 119.0
35.336884139 116.0
35.341807995 129.0
35.346731851 114.0
35.351655707 109.0
35.356579563 104.0
35.361503419 98.0
35.366427275 104.0
35.371351131 109.0
35.376274987 120.0
35.381198843 140.0
35.386122699 121.0
35.391046555 119.0
35.395970411 134.0
35.400894267 109.0
35.405818123 122.0
35.410741979 141.0
35.415665835 129.0
35.420589691 111.0
35.425513547 113.0
35.430437403 105.0
35.435361259 119.0
35.440285115 101.0
35.445208971 123.0
35.450132827 122.0
35.455056683 92.0
35.459980539 110.0
35.464904395 125.0
35.469828251 114.0
35.474752107 132.0
35.479675963 110.0
35.484599819 122.0
35.489523675 125.0
35.494447531 105.0
35.499371387 109.0
35.504295243 103.0
35.509219099 105.0
35.514142955 122.0
35.519066811 110.0
35.523990667 123.0
35.528914523 102.0
35.533838379 124.0
35.538762235 107.0
35.543686091 112.0
35.548609947 117.0
35.553533803 111.0
35.558457659 110.0
35.563381515 139.0
35.568305371 120.0
35.573229227 94.0
35.578153083 113.0
35.583076939 134.0
35.588000795 114.0
35.592924651 114.0
35.597848507 108.0
35.602772363 113.0
35.607696219 114.0
35.612620075 109.0
35.617543931 115.0
35.622467787 102.0
35.627391643 122.0
35.632315499 118.0
35.637239355 120.0
35.642163211 116.0
35.647087067 126.0
35.652010923 114.0
35.656934779 117.0
35.661858635 101.0
35.666782491 105.0
35.671706347 104.0
35.676630203 117.0
35.681554059 117.0
35.686477915 101.0
35.691401771 115.0
35.696325627 102.0
35.701249483 116.0
35.706173339 123.0
35.711097195 104.0
35.716021051 122.0
35.720944907 116.0
35.725868763 135.0
35.730792619 118.0
35.735716475 99.0
35.740640331 118.0
35.745564187 109.0
35.750488043 105.0
35.755411900 117.0
35.760335756 107.0
35.765259612 112.0
35.770183468 111.0
35.775107324 112.0
35.780031180 131.0
35.784955036 108.0
35.789878892 111.0
35.794802748 114.0
35.799726604 128.0
35.804650460 109.0
35.809574316 90.0
35.814498172 125.0
35.819422028 125.0
35.824345884 111.0
35.829269740 105.0
35.834193596 109.0
35.839117452 106.0
35.844041308 86.0
35.848965164 128.0
35.853889020 114.0
35.858812876 124.0
35.863736732 123.0
35.868660588 114.0
35.873584444 122.0
35.878508300 113.0
35.883432156 94.0
35.888356012 125.0
35.893279868 122.0
35.898203724 106.0
35.903127580 106.0
35.908051436 95.0
35.912975292 97.0
35.917899148 110.0
35.922823004 111.0
35.927746860 108.0
35.932670716 120.0
35.937594572 118.0
35.942518428 100.0
35.947442284 120.0
35.952366140 116.0
35.957289996 97.0
35.962213852 99.0
35.967137708 114.0
35.972061564 125.0
35.976985420 115.0
35.981909276 112.0
35.986833132 107.0
35.991756988 129.0
35.996680844 125.0
36.001604700 104.0
36.006528556 113.0
36.011452412 123.0
36.016376268 111.0
36.021300124 112.0
36.026223980 106.0
36.031147836 127.0
36.036071692 125.0
36.040995548 118.0
36.045919404 102.0
36.050843260 98.0
36.055767116 123.0
36.060690972 108.0
36.065614828 125.0
36.070538684 121.0
36.075462540 111.0
36.080386396 113.0
36.085310252 116.0
36.090234108 119.0
36.095157964 95.0
36.100081820 86.0
36.105005676 126.0
36.109929532 110.0
36.114853388 118.0
36.119777244 104.0
36.124701100 130.0
36.129624956 111.0
36.134548812 123.0
36.139472668 112.0
36.144396524 119.0
36.149320380 134.0
36.154244236 121.0
36.159168092 114.0
36.164091948 125.0
36.169015804 110.0
36.173939660 120.0
36.178863516 96.0
36.183787372 118.0
36.188711228 112.0
36.193635084 109.0
36.198558940 125.0
36.203482796 106.0
36.208406652 113.0
36.213330508 108.0
36.218254364 132.0
36.223178220 114.0
36.228102076 118.0
36.233025932 108.0
36.237949788 106.0
36.242873644 103.0
36.247797500 111.0
36.252721357 107.0
36.257645213 109.0
36.262569069 105.0
36.267492925 113.0
36.272416781 93.0
36.277340637 118.0
36.282264493 114.0
36.287188349 102.0
36.292112205 126.0
36.297036061 117.0
36.301959917 103.0
36.306883773 112.0
36.311807629 108.0
36.316731485 95.0
36.321655341 107.0
36.326579197 93.0
36.331503053 115.0
36.336426909 119.0
36.341350765 120.0
36.346274621 124.0
36.351198477 115.0
36.356122333 127.0
36.361046189 107.0
36.365970045 107.0
36.370893901 118.0
36.375817757 99.0
36.380741613 120.0
36.385665469 129.0
36.390589325 123.0
36.395513181 97.0
36.400437037 120.0
36.405360893 106.0
36.410284749 90.0
36.415208605 101.0
36.420132461 110.0
36.425056317 123.0
36.429980173 95.0
36.434904029 132.0
36.439827885 109.0
36.444751741 94.0
36.449675597 108.0
36.454599453 103.0
36.459523309 100.0
36.464447165 93.0
36.469371021 119.0
36.474294877 129.0
36.479218733 108.0
36.484142589 116.0
36.489066445 112.0
36.493990301 109.0
36.498914157 112.0
36.503838013 118.0
36.508761869 97.0
36.513685725 108.0
36.518609581 100.0
36.523533437 108.0
36.528457293 101.0
36.533381149 105.0
36.538305005 107.0
36.543228861 116.0
36.548152717 115.0
36.553076573 114.0
36.558000429 131.0
36.562924285 117.0
36.567848141 126.0
36.572771997 97.0
36.577695853 99.0
36.582619709 121.0
36.587543565 96.0
36.592467421 112.0
36.597391277 130.0
36.602315133 89.0
36.607238989 149.0
36.612162845 107.0
36.617086701 126.0
36.622010557 114.0
36.626934413 113.0
36.631858269 123.0
36.636782125 122.0
36.641705981 135.0
36.646629837 125.0
36.651553693 104.0
36.656477549 103.0
36.661401405 105.0
36.666325261 122.0
36.671249117 121.0
36.676172973 116.0
36.681096829 125.0
36.686020685 118.0
36.690944541 119.0
36.695868397 115.0
36.700792253 113.0
36.705716109 111.0
36.710639965 127.0
36.715563821 100.0
36.720487677 87.0
36.725411533 111.0
36.730335389 119.0
36.735259245 113.0
36.740183101 125.0
36.745106957 107.0
36.750030813 123.0
36.754954670 105.0
36.759878526 100.0
36.764802382 123.0
36.769726238 115.0
36.774650094 122.0
36.779573950 107.0
36.784497806 121.0
36.789421662 122.0
36.794345518 83.0
36.799269374 121.0
36.804193230 125.0
36.809117086 143.0
36.814040942 101.0
36.818964798 116.0
36.823888654 107.0
36.828812510 97.0
36.833736366 107.0
36.838660222 96.0
36.843584078 111.0
36.848507934 100.0
36.853431790 116.0
36.858355646 105.0
36.863279502 114.0
36.868203358 112.0
36.873127214 102.0
36.878051070 115.0
36.882974926 107.0
36.887898782 128.0
36.892822638 117.0
36.897746494 108.0
36.902670350 132.0
36.907594206 109.0
36.912518062 113.0
36.917441918 113.0
36.922365774 106.0
36.927289630 104.0
36.932213486 116.0
36.937137342 86.0
36.942061198 108.0
36.946985054 120.0
36.951908910 99.0
36.956832766 124.0
36.961756622 129.0
36.966680478 103.0
36.971604334 110.0
36.976528190 91.0
36.981452046 105.0
36.986375902 121.0
36.991299758 121.0
36.996223614 113.0
37.001147470 119.0
37.006071326 109.0
37.010995182 105.0
37.015919038 106.0
37.020842894 135.0
37.025766750 106.0
37.030690606 85.0
37.035614462 129.0
37.040538318 133.0
37.045462174 101.0
37.050386030 101.0
37.055309886 116.0
37.060233742 103.0
37.065157598 116.0
37.070081454 127.0
37.075005310 109.0
37.079929166 102.0
37.084853022 131.0
37.089776878 106.0
37.094700734 112.0
37.099624590 111.0
37.104548446 105.0
37.109472302 121.0
37.114396158 118.0
37.119320014 105.0
37.124243870 122.0
37.129167726 110.0
37.134091582 99.0
37.139015438 133.0
37.143939294 117.0
37.148863150 125.0
37.153787006 126.0
37.158710862 139.0
37.163634718 129.0
37.168558574 114.0
37.173482430 124.0
37.178406286 125.0
37.183330142 119.0
37.188253998 136.0
37.193177854 121.0
37.198101710 106.0
37.203025566 115.0
37.207949422 115.0
37.212873278 116.0
37.217797134 115.0
37.222720990 113.0
37.227644846 128.0
37.232568702 143.0
37.237492558 98.0
37.242416414 141.0
37.247340270 113.0
37.252264127 126.0
37.257187983 108.0
37.262111839 115.0
37.267035695 107.0
37.271959551 108.0
37.276883407 130.0
37.281807263 113.0
37.286731119 115.0
37.291654975 113.0
37.296578831 112.0
37.301502687 115.0
37.306426543 128.0
37.311350399 122.0
37.316274255 123.0
37.321198111 129.0
37.326121967 109.0
37.331045823 130.0
37.335969679 122.0
37.340893535 109.0
37.345817391 130.0
37.350741247 129.0
37.355665103 127.0
37.360588959 143.0
37.365512815 119.0
37.370436671 132.0
37.375360527 123.0
37.380284383 149.0
37.385208239 152.0
37.390132095 141.0
37.395055951 157.0
37.399979807 170.0
37.404903663 145.0
37.409827519 161.0
37.414751375 186.0
37.419675231 215.0
37.424599087 275.0
37.429522943 267.0
37.434446799 308.0
37.439370655 355.0
37.444294511 315.0
37.449218367 321.0
37.454142223 329.0
37.459066079 352.0
37.463989935 344.0
37.468913791 324.0
37.473837647 303.0
37.478761503 258.0
37.483685359 209.0
37.488609215 215.0
37.493533071 198.0
37.498456927 175.0
37.503380783 173.0
37.508304639 150.0
37.513228495 154.0
37.518152351 156.0
37.523076207 127.0
37.528000063 134.0
37.532923919 140.0
37.537847775 141.0
37.542771631 121.0
37.547695487 138.0
37.552619343 120.0
37.557543199 129.0
37.562467055 118.0
37.567390911 111.0
37.572314767 124.0
37.577238623 140.0
37.582162479 135.0
37.587086335 128.0
37.592010191 144.0
37.596934047 119.0
37.601857903 130.0
37.606781759 136.0
37.611705615 142.0
37.616629471 114.0
37.621553327 129.0
37.626477183 134.0
37.631401039 121.0
37.636324895 148.0
37.641248751 130.0
37.646172607 122.0
37.651096463 115.0
37.656020319 119.0
37.660944175 109.0
37.665868031 136.0
37.670791887 117.0
37.675715743 137.0
37.680639599 128.0
37.685563455 123.0
37.690487311 138.0
37.695411167 127.0
37.700335023 134.0
37.705258879 125.0
37.710182735 153.0
37.715106591 149.0
37.720030447 146.0
37.724954303 133.0
37.729878159 132.0
37.734802015 134.0
37.739725871 138.0
37.744649727 126.0
37.749573583 122.0
37.754497440 147.0
37.759421296 137.0
37.764345152 114.0
37.769269008 138.0
37.774192864 142.0
37.779116720 140.0
37.784040576 131.0
37.788964432 129.0
37.793888288 138.0
37.798812144 113.0
37.803736000 106.0
37.808659856 134.0
37.813583712 117.0
37.818507568 112.0
37.823431424 132.0
37.828355280 142.0
37.833279136 140.0
37.838202992 122.0
37.843126848 141.0
37.848050704 111.0
37.852974560 125.0
37.857898416 167.0
37.862822272 134.0
37.867746128 148.0
37.872669984 136.0
37.877593840 152.0
37.882517696 133.0
37.887441552 123.0
37.892365408 122.0
37.897289264 132.0
37.902213120 143.0
37.907136976 137.0
37.912060832 152.0
37.916984688 128.0
37.921908544 124.0
37.926832400 154.0
37.931756256 156.0
37.936680112 130.0
37.941603968 148.0
37.946527824 148.0
37.951451680 123.0
37.956375536 128.0
37.961299392 151.0
37.966223248 146.0
37.971147104 142.0
37.976070960 140.0
37.980994816 126.0
37.985918672 128.0
37.990842528 146.0
37.995766384 124.0
38.000690240 136.0
38.005614096 159.0
38.010537952 149.0
38.015461808 127.0
38.020385664 144.0
38.025309520 136.0
38.030233376 127.0
38.035157232 153.0
38.040081088 164.0
38.045004944 138.0
38.049928800 127.0
38.054852656 138.0
38.059776512 151.0
38.064700368 167.0
38.069624224 129.0
38.074548080 175.0
38.079471936 125.0
38.084395792 156.0
38.089319648 119.0
38.094243504 158.0
38.099167360 148.0
38.104091216 158.0
38.109015072 144.0
38.113938928 144.0
38.118862784 164.0
38.123786640 153.0
38.128710496 144.0
38.133634352 163.0
38.138558208 175.0
38.143482064 152.0
38.148405920 160.0
38.153329776 172.0
38.158253632 152.0
38.163177488 145.0
38.168101344 166.0
38.173025200 166.0
38.177949056 143.0
38.182872912 145.0
38.187796768 136.0
38.192720624 149.0
38.197644480 151.0
38.202568336 139.0
38.207492192 144.0
38.212416048 166.0
38.217339904 161.0
38.222263760 152.0
38.227187616 163.0
38.232111472 178.0
38.237035328 138.0
38.241959184 182.0
38.246883040 163.0
38.251806897 178.0
38.256730753 161.0
38.261654609 171.0
38.266578465 172.0
38.271502321 168.0
38.276426177 160.0
38.281350033 173.0
38.286273889 170.0
38.291197745 148.0
38.296121601 174.0
38.301045457 167.0
38.305969313 188.0
38.310893169 185.0
38.315817025 166.0
38.320740881 178.0
38.325664737 170.0
38.330588593 154.0
38.335512449 176.0
38.340436305 161.0
38.345360161 176.0
38.350284017 190.0
38.355207873 175.0
38.360131729 182.0
38.365055585 187.0
38.369979441 185.0
38.374903297 184.0
38.379827153 198.0
38.384751009 173.0
38.389674865 188.0
38.394598721 169.0
38.399522577 202.0
38.404446433 165.0
38.409370289 186.0
38.414294145 173.0
38.419218001 189.0
38.424141857 185.0
38.429065713 211.0
38.433989569 199.0
38.438913425 173.0
38.443837281 177.0
38.448761137 196.0
38.453684993 186.0
38.458608849 187.0
38.463532705 184.0
38.468456561 193.0
38.473380417 210.0
38.478304273 206.0
38.483228129 209.0
38.488151985 205.0
38.493075841 216.0
38.497999697 236.0
38.502923553 238.0
38.507847409 224.0
38.512771265 219.0
38.517695121 216.0
38.522618977 211.0
38.527542833 260.0
38.532466689 214.0
38.537390545 221.0
38.542314401 198.0
38.547238257 208.0
38.552162113 209.0
38.557085969 218.0
38.562009825 213.0
38.566933681 231.0
38.571857537 222.0
38.576781393 216.0
38.581705249 224.0
38.586629105 269.0
38.591552961 228.0
38.596476817 265.0
38.601400673 239.0
38.606324529 257.0
38.611248385 264.0
38.616172241 269.0
38.621096097 276.0
38.626019953 263.0
38.630943809 302.0
38.635867665 261.0
38.640791521 264.0
38.645715377 228.0
38.650639233 271.0
38.655563089 223.0
38.660486945 229.0
38.665410801 285.0
38.670334657 273.0
38.675258513 300.0
38.680182369 298.0
38.685106225 313.0
38.690030081 267.0
38.694953937 304.0
38.699877793 308.0
38.704801649 310.0
38.709725505 312.0
38.714649361 342.0
38.719573217 338.0
38.724497073 323.0
38.729420929 345.0
38.734344785 352.0
38.739268641 348.0
38.744192497 374.0
38.749116353 352.0
38.754040210 352.0
38.758964066 362.0
38.763887922 365.0
38.768811778 376.0
38.773735634 354.0
38.778659490 362.0
38.783583346 356.0
38.788507202 388.0
38.793431058 363.0
38.798354914 377.0
38.803278770 405.0
38.808202626 409.0
38.813126482 389.0
38.818050338 423.0
38.822974194 429.0
38.827898050 489.0
38.832821906 502.0
38.837745762 482.0
38.842669618 503.0
38.847593474 529.0
38.852517330 501.0
38.857441186 496.0
38.862365042 525.0
38.867288898 515.0
38.872212754 511.0
38.877136610 555.0
38.882060466 528.0
38.886984322 570.0
38.891908178 582.0
38.896832034 588.0
38.901755890 562.0
38.906679746 608.0
38.911603602 611.0
38.916527458 573.0
38.921451314 682.0
38.926375170 698.0
38.931299026 692.0
38.936222882 742.0
38.941146738 791.0
38.946070594 828.0
38.950994450 854.0
38.955918306 887.0
38.960842162 893.0
38.965766018 967.0
38.970689874 1011.0
38.975613730 1005.0
38.980537586 1066.0
38.985461442 1070.0
38.990385298 1059.0
38.995309154 1151.0
39.000233010 1083.0
39.005156866 1152.0
39.010080722 1242.0
39.015004578 1280.0
39.019928434 1282.0
39.024852290 1379.0
39.029776146 1544.0
39.034700002 1506.0
39.039623858 1608.0
39.044547714 1704.0
39.049471570 1805.0
39.054395426 1982.0
39.059319282 2141.0
39.064243138 2254.0
39.069166994 2292.0
39.074090850 2553.0
39.079014706 2746.0
39.083938562 3003.0
39.088862418 3130.0
39.093786274 3250.0
39.098710130 3571.0
39.103633986 3664.0
39.108557842 3824.0
39.113481698 3957.0
39.118405554 4027.0
39.123329410 4187.0
39.128253266 4242.0
39.133177122 4460.0
39.138100978 4448.0
39.143024834 4550.0
39.147948690 4636.0
39.152872546 4589.0
39.157796402 4669.0
39.162720258 4665.0
39.167644114 4674.0
39.172567970 4498.0
39.177491826 4534.0
39.182415682 4531.0
39.187339538 4523.0
39.192263394 4506.0
39.197187250 4214.0
39.202111106 4406.0
39.207034962 4116.0
39.211958818 4215.0
39.216882674 4129.0
39.221806530 4067.0
39.226730386 3914.0
39.231654242 3678.0
39.236578098 3761.0
39.241501954 3639.0
39.246425810 3509.0
39.251349667 3459.0
39.256273523 3316.0
39.261197379 3243.0
39.266121235 3026.0
39.271045091 2979.0
39.275968947 2942.0
39.280892803 2792.0
39.285816659 2724.0
39.290740515 2636.0
39.295664371 2500.0
39.300588227 2441.0
39.305512083 2231.0
39.310435939 2182.0
39.315359795 2053.0
39.320283651 1949.0
39.325207507 1802.0
39.330131363 1715.0
39.335055219 1635.0
39.339979075 1592.0
39.344902931 1538.0
39.349826787 1440.0
39.354750643 1288.0
39.359674499 1259.0
39.364598355 1246.0
39.369522211 1190.0
39.374446067 1044.0
39.379369923 1034.0
39.384293779 1023.0
39.389217635 993.0
39.394141491 884.0
39.399065347 896.0
39.403989203 875.0
39.408913059 793.0
39.413836915 782.0
39.418760771 757.0
39.423684627 778.0
39.428608483 713.0
39.433532339 679.0
39.438456195 685.0
39.443380051 648.0
39.448303907 635.0
39.453227763 573.0
39.458151619 591.0
39.463075475 609.0
39.467999331 551.0
39.472923187 500.0
39.477847043 537.0
39.482770899 477.0
39.487694755 466.0
39.492618611 462.0
39.497542467 398.0
39.502466323 436.0
39.507390179 412.0
39.512314035 441.0
39.517237891 399.0
39.522161747 378.0
39.527085603 370.0
39.532009459 352.0
39.536933315 375.0
39.541857171 318.0
39.546781027 347.0
39.551704883 347.0
39.556628739 310.0
39.561552595 361.0
39.566476451 298.0
39.571400307 303.0
39.576324163 311.0
39.581248019 311.0
39.586171875 272.0
39.591095731 288.0
39.596019587 270.0
39.600943443 258.0
39.605867299 287.0
39.610791155 287.0
39.615715011 237.0
39.620638867 297.0
39.625562723 264.0
39.630486579 200.0
39.635410435 240.0
39.640334291 219.0
39.645258147 222.0
39.650182003 236.0
39.655105859 235.0
39.660029715 206.0
39.664953571 192.0
39.669877427 227.0
39.674801283 208.0
39.679725139 191.0
39.684648995 202.0
39.689572851 210.0
39.694496707 175.0
39.699420563 204.0
39.704344419 210.0
39.709268275 185.0
39.714192131 199.0
39.719115987 234.0
39.724039843 186.0
39.728963699 196.0
39.733887555 184.0
39.738811411 188.0
39.743735267 187.0
39.748659123 193.0
39.753582980 181.0
39.758506836 163.0
39.763430692 165.0
39.768354548 180.0
39.773278404 179.0
39.778202260 176.0
39.783126116 189.0
39.788049972 164.0
39.792973828 169.0
39.797897684 171.0
39.802821540 178.0
39.807745396 186.0
39.812669252 171.0
39.817593108 156.0
39.822516964 176.0
39.827440820 156.0
39.832364676 186.0
39.837288532 173.0
39.842212388 160.0
39.847136244 168.0
39.852060100 166.0
39.856983956 148.0
39.861907812 181.0
39.866831668 144.0
39.871755524 128.0
39.876679380 151.0
39.881603236 152.0
39.886527092 174.0
39.891450948 165.0
39.896374804 167.0
39.901298660 138.0
39.906222516 171.0
39.911146372 149.0
39.916070228 125.0
39.920994084 151.0
39.925917940 128.0
39.930841796 171.0
39.935765652 149.0
39.940689508 154.0
39.945613364 126.0
39.950537220 148.0
39.955461076 163.0
39.960384932 143.0
39.965308788 152.0
39.970232644 132.0
39.975156500 143.0
39.980080356 143.0
39.985004212 136.0
39.989928068 143.0
39.994851924 133.0
39.999775780 152.0
40.004699636 134.0
40.009623492 114.0
40.014547348 121.0
40.019471204 124.0
40.024395060 151.0
40.029318916 142.0
40.034242772 128.0
40.039166628 151.0
40.044090484 138.0
40.049014340 144.0
40.053938196 142.0
40.058862052 116.0
40.063785908 134.0
40.068709764 138.0
40.073633620 125.0
40.078557476 151.0
40.083481332 147.0
40.088405188 157.0
40.093329044 122.0
40.098252900 135.0
40.103176756 149.0
40.108100612 133.0
40.113024468 147.0
40.117948324 148.0
40.122872180 123.0
40.127796036 137.0
40.132719892 122.0
40.137643748 141.0
40.142567604 139.0
40.147491460 119.0
40.152415316 137.0
40.157339172 122.0
40.162263028 132.0
40.167186884 144.0
40.172110740 168.0
40.177034596 135.0
40.181958452 117.0
40.186882308 152.0
40.191806164 122.0
40.196730020 139.0
40.201653876 125.0
40.206577732 130.0
40.211501588 127.0
40.216425444 117.0
40.221349300 127.0
40.226273156 151.0
40.231197012 145.0
40.236120868 147.0
40.241044724 141.0
40.245968580 145.0
40.250892437 129.0
40.255816293 130.0
40.260740149 132.0
40.265664005 149.0
40.270587861 143.0
40.275511717 133.0
40.280435573 149.0
40.285359429 143.0
40.290283285 112.0
40.295207141 123.0
40.300130997 132.0
40.305054853 140.0
40.309978709 127.0
40.314902565 134.0
40.319826421 132.0
40.324750277 143.0
40.329674133 107.0
40.334597989 138.0
40.339521845 146.0
40.344445701 141.0
40.349369557 134.0
40.354293413 145.0
40.359217269 149.0
40.364141125 129.0
40.369064981 144.0
40.373988837 129.0
40.378912693 132.0
40.383836549 153.0
40.388760405 124.0
40.393684261 131.0
40.398608117 140.0
40.403531973 129.0
40.408455829 141.0
40.413379685 138.0
40.418303541 140.0
40.423227397 119.0
40.428151253 145.0
40.433075109 147.0
40.437998965 136.0
40.442922821 144.0
40.447846677 130.0
40.452770533 133.0
40.457694389 106.0
40.462618245 149.0
40.467542101 160.0
40.472465957 156.0
40.477389813 128.0
40.482313669 156.0
40.487237525 151.0
40.492161381 127.0
40.497085237 154.0
40.502009093 160.0
40.506932949 147.0
40.511856805 135.0
40.516780661 148.0
40.521704517 166.0
40.526628373 153.0
40.531552229 140.0
40.536476085 132.0
40.541399941 140.0
40.546323797 175.0
40.551247653 147.0
40.556171509 142.0
40.561095365 147.0
40.566019221 145.0
40.570943077 138.0
40.575866933 148.0
40.580790789 145.0
40.585714645 134.0
40.590638501 146.0
40.595562357 153.0
40.600486213 144.0
40.605410069 110.0
40.610333925 154.0
40.615257781 162.0
40.620181637 152.0
40.625105493 153.0
40.630029349 158.0
40.634953205 164.0
40.639877061 131.0
40.644800917 145.0
40.649724773 145.0
40.654648629 142.0
40.659572485 145.0
40.664496341 168.0
40.669420197 156.0
40.674344053 158.0
40.679267909 168.0
40.684191765 143.0
40.689115621 172.0
40.694039477 137.0
40.698963333 159.0
40.703887189 154.0
40.708811045 166.0
40.713734901 180.0
40.718658757 142.0
40.723582613 162.0
40.728506469 156.0
40.733430325 177.0
40.738354181 147.0
40.743278037 171.0
40.748201893 151.0
40.753125750 150.0
40.758049606 166.0
40.762973462 178.0
40.767897318 165.0
40.772821174 150.0
40.777745030 169.0
40.782668886 166.0
40.787592742 185.0
40.792516598 166.0
40.797440454 182.0
40.802364310 166.0
40.807288166 148.0
40.812212022 183.0
40.817135878 169.0
40.822059734 175.0
40.826983590 159.0
40.831907446 172.0
40.836831302 181.0
40.841755158 170.0
40.846679014 158.0
40.851602870 177.0
40.856526726 153.0
40.861450582 160.0
40.866374438 149.0
40.871298294 187.0
40.876222150 156.0
40.881146006 153.0
40.886069862 198.0
40.890993718 181.0
40.895917574 168.0
40.900841430 173.0
40.905765286 177.0
40.910689142 173.0
40.915612998 186.0
40.920536854 152.0
40.925460710 172.0
40.930384566 197.0
40.935308422 189.0
40.940232278 178.0
40.945156134 173.0
40.950079990 175.0
40.955003846 196.0
40.959927702 166.0
40.964851558 198.0
40.969775414 191.0
40.974699270 166.0
40.979623126 173.0
40.984546982 222.0
40.989470838 173.0
40.994394694 173.0
40.999318550 194.0
41.004242406 169.0
41.009166262 158.0
41.014090118 210.0
41.019013974 169.0
41.023937830 176.0
41.028861686 158.0
41.033785542 182.0
41.038709398 196.0
41.043633254 190.0
41.048557110 180.0
41.053480966 202.0
41.058404822 179.0
41.063328678 200.0
41.068252534 181.0
41.073176390 221.0
41.078100246 206.0
41.083024102 197.0
41.087947958 190.0
41.092871814 192.0
41.097795670 221.0
41.102719526 214.0
41.107643382 184.0
41.112567238 197.0
41.117491094 208.0
41.122414950 218.0
41.127338806 236.0
41.132262662 194.0
41.137186518 200.0
41.142110374 204.0
41.147034230 217.0
41.151958086 203.0
41.156881942 270.0
41.161805798 217.0
41.166729654 214.0
41.171653510 197.0
41.176577366 234.0
41.181501222 227.0
41.186425078 232.0
41.191348934 220.0
41.196272790 283.0
41.201196646 215.0
41.206120502 283.0
41.211044358 273.0
41.215968214 223.0
41.220892070 299.0
41.225815926 263.0
41.230739782 276.0
41.235663638 305.0
41.240587494 282.0
41.245511350 288.0
41.250435207 277.0
41.255359063 291.0
41.260282919 275.0
41.265206775 306.0
41.270130631 301.0
41.275054487 305.0
41.279978343 310.0
41.284902199 321.0
41.289826055 289.0
41.294749911 297.0
41.299673767 294.0
41.304597623 336.0
41.309521479 346.0
41.314445335 349.0
41.319369191 318.0
41.324293047 343.0
41.329216903 350.0
41.334140759 369.0
41.339064615 352.0
41.343988471 341.0
41.348912327 359.0
41.353836183 383.0
41.358760039 384.0
41.363683895 382.0
41.368607751 421.0
41.373531607 419.0
41.378455463 461.0
41.383379319 490.0
41.388303175 508.0
41.393227031 575.0
41.398150887 635.0
41.403074743 666.0
41.407998599 682.0
41.412922455 763.0
41.417846311 837.0
41.422770167 901.0
41.427694023 975.0
41.432617879 952.0
41.437541735 1038.0
41.442465591 1050.0
41.447389447 1085.0
41.452313303 1014.0
41.457237159 1022.0
41.462161015 996.0
41.467084871 1042.0
41.472008727 1019.0
41.476932583 983.0
41.481856439 1032.0
41.486780295 1011.0
41.491704151 1022.0
41.496628007 1057.0
41.501551863 1069.0
41.506475719 1057.0
41.511399575 1084.0
41.516323431 1226.0
41.521247287 1308.0
41.526171143 1481.0
41.531094999 1574.0
41.536018855 1745.0
41.540942711 1998.0
41.545866567 2151.0
41.550790423 2554.0
41.555714279 3053.0
41.560638135 3497.0
41.565561991 4344.0
41.570485847 5489.0
41.575409703 7412.0
41.580333559 10362.0
41.585257415 16054.0
41.590181271 24765.0
41.595105127 36305.0
41.600028983 47656.0
41.604952839 55942.0
41.609876695 60422.0
41.614800551 63862.0
41.619724407 65479.0
41.624648263 66294.0
41.629572119 66440.0
41.634495975 65138.0
41.639419831 63093.0
41.644343687 56063.0
41.649267543 45824.0
41.654191399 33211.0
41.659115255 22872.0
41.664039111 15439.0
41.668962967 11259.0
41.673886823 8612.0
41.678810679 7718.0
41.683734535 7640.0
41.688658391 8556.0
41.693582247 10516.0
41.698506103 14640.0
41.703429959 19317.0
41.708353815 24648.0
41.713277671 28241.0
41.718201527 30882.0
41.723125383 32344.0
41.728049239 33145.0
41.732973095 33819.0
41.737896951 33262.0
41.742820807 32476.0
41.747744663 30193.0
41.752668520 27158.0
41.757592376 22585.0
41.762516232 17268.0
41.767440088 12153.0
41.772363944 8447.0
41.777287800 5711.0
41.782211656 4258.0
41.787135512 3213.0
41.792059368 2638.0
41.796983224 2150.0
41.801907080 1922.0
41.806830936 1710.0
41.811754792 1452.0
41.816678648 1304.0
41.821602504 1323.0
41.826526360 1179.0
41.831450216 1047.0
41.836374072 1035.0
41.841297928 983.0
41.846221784 885.0
41.851145640 822.0
41.856069496 784.0
41.860993352 763.0
41.865917208 739.0
41.870841064 734.0
41.875764920 682.0
41.880688776 687.0
41.885612632 619.0
41.890536488 572.0
41.895460344 582.0
41.900384200 552.0
41.905308056 523.0
41.910231912 528.0
41.915155768 506.0
41.920079624 506.0
41.925003480 486.0
41.929927336 453.0
41.934851192 492.0
41.939775048 439.0
41.944698904 411.0
41.949622760 427.0
41.954546616 400.0
41.959470472 415.0
41.964394328 393.0
41.969318184 380.0
41.974242040 368.0
41.979165896 385.0
41.984089752 384.0
41.989013608 365.0
41.993937464 346.0
41.998861320 334.0
42.003785176 370.0
42.008709032 339.0
42.013632888 340.0
42.018556744 336.0
42.023480600 329.0
42.028404456 324.0
42.033328312 315.0
42.038252168 288.0
42.043176024 311.0
42.048099880 294.0
42.053023736 305.0
42.057947592 307.0
42.062871448 289.0
42.067795304 291.0
42.072719160 294.0
42.077643016 282.0
42.082566872 317.0
42.087490728 285.0
42.092414584 283.0
42.097338440 297.0
42.102262296 222.0
42.107186152 275.0
42.112110008 219.0
42.117033864 259.0
42.121957720 276.0
42.126881576 221.0
42.131805432 198.0
42.136729288 274.0
42.141653144 223.0
42.146577000 219.0
42.151500856 219.0
42.156424712 204.0
42.161348568 200.0
42.166272424 195.0
42.171196280 227.0
42.176120136 203.0
42.181043992 203.0
42.185967848 212.0
42.190891704 221.0
42.195815560 217.0
42.200739416 186.0
42.205663272 203.0
42.210587128 199.0
42.215510984 192.0
42.220434840 192.0
42.225358696 223.0
42.230282552 175.0
42.235206408 211.0
42.240130264 203.0
42.245054120 194.0
42.249977977 194.0
42.254901833 187.0
42.259825689 160.0
42.264749545 166.0
42.269673401 186.0
42.274597257 177.0
42.279521113 189.0
42.284444969 188.0
42.289368825 173.0
42.294292681 166.0
42.299216537 152.0
42.304140393 165.0
42.309064249 153.0
42.313988105 171.0
42.318911961 166.0
42.323835817 182.0
42.328759673 197.0
42.333683529 167.0
42.338607385 188.0
42.343531241 162.0
42.348455097 158.0
42.353378953 174.0
42.358302809 193.0
42.363226665 159.0
42.368150521 144.0
42.373074377 160.0
42.377998233 174.0
42.382922089 143.0
42.387845945 152.0
42.392769801 143.0
42.397693657 161.0
42.402617513 164.0
42.407541369 122.0
42.412465225 155.0
42.417389081 153.0
42.422312937 150.0
42.427236793 165.0
42.432160649 164.0
42.437084505 176.0
42.442008361 161.0
42.446932217 142.0
42.451856073 144.0
42.456779929 149.0
42.461703785 146.0
42.466627641 171.0
42.471551497 190.0
42.476475353 150.0
42.481399209 145.0
42.486323065 158.0
42.491246921 149.0
42.496170777 157.0
42.501094633 137.0
42.506018489 125.0
42.510942345 164.0
42.515866201 151.0
42.520790057 156.0
42.525713913 148.0
42.530637769 159.0
42.535561625 158.0
42.540485481 137.0
42.545409337 142.0
42.550333193 147.0
42.555257049 132.0
42.560180905 119.0
42.565104761 121.0
42.570028617 130.0
42.574952473 140.0
42.579876329 141.0
42.584800185 142.0
42.589724041 158.0
42.594647897 148.0
42.599571753 129.0
42.604495609 140.0
42.609419465 172.0
42.614343321 115.0
42.619267177 166.0
42.624191033 132.0
42.629114889 161.0
42.634038745 143.0
42.638962601 139.0
42.643886457 130.0
42.648810313 137.0
42.653734169 152.0
42.658658025 125.0
42.663581881 131.0
42.668505737 156.0
42.673429593 145.0
42.678353449 146.0
42.683277305 141.0
42.688201161 153.0
42.693125017 140.0
42.698048873 147.0
42.702972729 111.0
42.707896585 137.0
42.712820441 110.0
42.717744297 132.0
42.722668153 136.0
42.727592009 138.0
42.732515865 120.0
42.737439721 140.0
42.742363577 145.0
42.747287433 139.0
42.752211290 126.0
42.757135146 127.0
42.762059002 136.0
42.766982858 117.0
42.771906714 141.0
42.776830570 118.0
42.781754426 127.0
42.786678282 148.0
42.791602138 136.0
42.796525994 129.0
42.801449850 146.0
42.806373706 120.0
42.811297562 138.0
42.816221418 144.0
42.821145274 120.0
42.826069130 124.0
42.830992986 129.0
42.835916842 114.0
42.840840698 131.0
42.845764554 128.0
42.850688410 140.0
42.855612266 123.0
42.860536122 134.0
42.865459978 109.0
42.870383834 113.0
42.875307690 122.0
42.880231546 129.0
42.885155402 145.0
42.890079258 130.0
42.895003114 118.0
42.899926970 110.0
42.904850826 108.0
42.909774682 128.0
42.914698538 133.0
42.919622394 129.0
42.924546250 138.0
42.929470106 134.0
42.934393962 126.0
42.939317818 118.0
42.944241674 117.0
42.949165530 118.0
42.954089386 113.0
42.959013242 114.0
42.963937098 113.0
42.968860954 117.0
42.973784810 121.0
42.978708666 132.0
42.983632522 137.0
42.988556378 116.0
42.993480234 114.0
42.998404090 133.0
43.003327946 127.0
43.008251802 122.0
43.013175658 114.0
43.018099514 133.0
43.023023370 114.0
43.027947226 138.0
43.032871082 135.0
43.037794938 124.0
43.042718794 123.0
43.047642650 129.0
43.052566506 125.0
43.057490362 139.0
43.062414218 133.0
43.067338074 138.0
43.072261930 129.0
43.077185786 135.0
43.082109642 135.0
43.087033498 138.0
43.091957354 122.0
43.096881210 125.0
43.101805066 110.0
43.106728922 129.0
43.111652778 106.0
43.116576634 148.0
43.121500490 129.0
43.126424346 119.0
43.131348202 102.0
43.136272058 97.0
43.141195914 114.0
43.146119770 130.0
43.151043626 127.0
43.155967482 121.0
43.160891338 130.0
43.165815194 126.0
43.170739050 125.0
43.175662906 119.0
43.180586762 148.0
43.185510618 135.0
43.190434474 113.0
43.195358330 140.0
43.200282186 136.0
43.205206042 147.0
43.210129898 121.0
43.215053754 122.0
43.219977610 117.0
43.224901466 117.0
43.229825322 131.0
43.234749178 130.0
43.239673034 111.0
43.244596890 139.0
43.249520747 128.0
43.254444603 111.0
43.259368459 126.0
43.264292315 125.0
43.269216171 107.0
43.274140027 124.0
43.279063883 122.0
43.283987739 120.0
43.288911595 130.0
43.293835451 121.0
43.298759307 113.0
43.303683163 124.0
43.308607019 133.0
43.313530875 134.0
43.318454731 115.0
43.323378587 113.0
43.328302443 114.0
43.333226299 140.0
43.338150155 122.0
43.343074011 114.0
43.347997867 135.0
43.352921723 118.0
43.357845579 114.0
43.362769435 136.0
43.367693291 130.0
43.372617147 127.0
43.377541003 115.0
43.382464859 145.0
43.387388715 125.0
43.392312571 136.0
43.397236427 152.0
43.402160283 117.0
43.407084139 137.0
43.412007995 135.0
43.416931851 147.0
43.421855707 145.0
43.426779563 137.0
43.431703419 116.0
43.436627275 132.0
43.441551131 124.0
43.446474987 129.0
43.451398843 123.0
43.456322699 116.0
43.461246555 127.0
43.466170411 104.0
43.471094267 132.0
43.476018123 120.0
43.480941979 114.0
43.485865835 127.0
43.490789691 135.0
43.495713547 126.0
43.500637403 118.0
43.505561259 134.0
43.510485115 109.0
43.515408971 143.0
43.520332827 124.0
43.525256683 133.0
43.530180539 116.0
43.535104395 142.0
43.540028251 144.0
43.544952107 139.0
43.549875963 138.0
43.554799819 130.0
43.559723675 130.0
43.564647531 128.0
43.569571387 123.0
43.574495243 133.0
43.579419099 106.0
43.584342955 136.0
43.589266811 117.0
43.594190667 119.0
43.599114523 112.0
43.604038379 126.0
43.608962235 136.0
43.613886091 128.0
43.618809947 118.0
43.623733803 135.0
43.628657659 122.0
43.633581515 121.0
43.638505371 149.0
43.643429227 128.0
43.648353083 134.0
43.653276939 120.0
43.658200795 141.0
43.663124651 139.0
43.668048507 144.0
43.672972363 119.0
43.677896219 121.0
43.682820075 114.0
43.687743931 124.0
43.692667787 136.0
43.697591643 111.0
43.702515499 124.0
43.707439355 150.0
43.712363211 116.0
43.717287067 124.0
43.722210923 133.0
43.727134779 133.0
43.732058635 141.0
43.736982491 121.0
43.741906347 131.0
43.746830203 141.0
43.751754060 139.0
43.756677916 113.0
43.761601772 130.0
43.766525628 143.0
43.771449484 148.0
43.776373340 127.0
43.781297196 118.0
43.786221052 127.0
43.791144908 120.0
43.796068764 106.0
43.800992620 141.0
43.805916476 117.0
43.810840332 126.0
43.815764188 148.0
43.820688044 150.0
43.825611900 123.0
43.830535756 145.0
43.835459612 135.0
43.840383468 170.0
43.845307324 124.0
43.850231180 128.0
43.855155036 138.0
43.860078892 124.0
43.865002748 122.0
43.869926604 141.0
43.874850460 158.0
43.879774316 131.0
43.884698172 145.0
43.889622028 124.0
43.894545884 142.0
43.899469740 150.0
43.904393596 145.0
43.909317452 140.0
43.914241308 155.0
43.919165164 107.0
43.924089020 153.0
43.929012876 130.0
43.933936732 126.0
43.938860588 137.0
43.943784444 123.0
43.948708300 142.0
43.953632156 140.0
43.958556012 143.0
43.963479868 132.0
43.968403724 143.0
43.973327580 125.0
43.978251436 139.0
43.983175292 127.0
43.988099148 169.0
43.993023004 130.0
43.997946860 121.0
44.002870716 150.0
44.007794572 135.0
44.012718428 146.0
44.017642284 148.0
44.022566140 129.0
44.027489996 175.0
44.032413852 142.0
44.037337708 158.0
44.042261564 125.0
44.047185420 143.0
44.052109276 134.0
44.057033132 149.0
44.061956988 116.0
44.066880844 160.0
44.071804700 156.0
44.076728556 153.0
44.081652412 122.0
44.086576268 145.0
44.091500124 120.0
44.096423980 159.0
44.101347836 155.0
44.106271692 132.0
44.111195548 145.0
44.116119404 167.0
44.121043260 162.0
44.125967116 159.0
44.130890972 158.0
44.135814828 156.0
44.140738684 139.0
44.145662540 158.0
44.150586396 163.0
44.155510252 168.0
44.160434108 160.0
44.165357964 163.0
44.170281820 153.0
44.175205676 178.0
44.180129532 151.0
44.185053388 163.0
44.189977244 169.0
44.194901100 147.0
44.199824956 182.0
44.204748812 171.0
44.209672668 161.0
44.214596524 171.0
44.219520380 184.0
44.224444236 193.0
44.229368092 192.0
44.234291948 162.0
44.239215804 199.0
44.244139660 199.0
44.249063517 189.0
44.253987373 188.0
44.258911229 182.0
44.263835085 222.0
44.268758941 188.0
44.273682797 202.0
44.278606653 208.0
44.283530509 228.0
44.288454365 222.0
44.293378221 203.0
44.298302077 198.0
44.303225933 188.0
44.308149789 234.0
44.313073645 235.0
44.317997501 221.0
44.322921357 213.0
44.327845213 218.0
44.332769069 234.0
44.337692925 242.0
44.342616781 235.0
44.347540637 234.0
44.352464493 248.0
44.357388349 274.0
44.362312205 257.0
44.367236061 256.0
44.372159917 263.0
44.377083773 272.0
44.382007629 255.0
44.386931485 268.0
44.391855341 233.0
44.396779197 243.0
44.401703053 255.0
44.406626909 281.0
44.411550765 266.0
44.416474621 261.0
44.421398477 259.0
44.426322333 257.0
44.431246189 276.0
44.436170045 238.0
44.441093901 256.0
44.446017757 281.0
44.450941613 271.0
44.455865469 245.0
44.460789325 263.0
44.465713181 264.0
44.470637037 261.0
44.475560893 244.0
44.480484749 255.0
44.485408605 223.0
44.490332461 235.0
44.495256317 236.0
44.500180173 269.0
44.505104029 227.0
44.510027885 245.0
44.514951741 227.0
44.519875597 235.0
44.524799453 248.0
44.529723309 233.0
44.534647165 223.0
44.539571021 193.0
44.544494877 208.0
44.549418733 228.0
44.554342589 206.0
44.559266445 222.0
44.564190301 188.0
44.569114157 196.0
44.574038013 170.0
44.578961869 207.0
44.583885725 192.0
44.588809581 160.0
44.593733437 197.0
44.598657293 207.0
44.603581149 196.0
44.608505005 198.0
44.613428861 184.0
44.618352717 186.0
44.623276573 183.0
44.628200429 165.0
44.633124285 155.0
44.638048141 162.0
44.642971997 164.0
44.647895853 172.0
44.652819709 164.0
44.657743565 173.0
44.662667421 165.0
44.667591277 171.0
44.672515133 162.0
44.677438989 172.0
44.682362845 160.0
44.687286701 171.0
44.692210557 166.0
44.697134413 156.0
44.702058269 148.0
44.706982125 161.0
44.711905981 172.0
44.716829837 144.0
44.721753693 142.0
44.726677549 144.0
44.731601405 134.0
44.736525261 159.0
44.741449117 131.0
44.746372973 154.0
44.751296830 139.0
44.756220686 128.0
44.761144542 167.0
44.766068398 157.0
44.770992254 120.0
44.775916110 142.0
44.780839966 134.0
44.785763822 128.0
44.790687678 144.0
44.795611534 124.0
44.800535390 140.0
44.805459246 121.0
44.810383102 153.0
44.815306958 145.0
44.820230814 116.0
44.825154670 121.0
44.830078526 124.0
44.835002382 123.0
44.839926238 133.0
44.844850094 135.0
44.849773950 135.0
44.854697806 152.0
44.859621662 136.0
44.864545518 123.0
44.869469374 123.0
44.874393230 137.0
44.879317086 122.0
44.884240942 121.0
44.889164798 123.0
44.894088654 119.0
44.899012510 128.0
44.903936366 133.0
44.908860222 124.0
44.913784078 126.0
44.918707934 133.0
44.923631790 126.0
44.928555646 126.0
44.933479502 116.0
44.938403358 126.0
44.943327214 109.0
44.948251070 116.0
44.953174926 135.0
44.958098782 123.0
44.963022638 116.0
44.967946494 143.0
44.972870350 136.0
44.977794206 116.0
44.982718062 115.0
44.987641918 114.0
44.992565774 123.0
44.997489630 141.0
