30.002461930 61.0
30.007385786 53.0
30.012309642 57.0
30.017233498 61.0
30.022157354 52.0
30.027081210 53.0
30.032005066 48.0
30.036928922 64.0
30.041852778 46.0
30.046776634 51.0
30.051700490 62.0
30.056624346 64.0
30.061548202 54.0
30.066472058 58.0
30.071395914 49.0
30.076319770 60.0
30.081243626 59.0
30.086167482 54.0
30.091091338 60.0
30.096015194 78.0
30.100939050 72.0
30.105862906 49.0
30.110786762 65.0
30.115710618 57.0
30.120634474 61.0
30.125558330 61.0
30.130482186 61.0
30.135406042 52.0
30.140329898 60.0
30.145253754 73.0
30.150177610 58.0
30.155101466 61.0
30.160025322 47.0
30.164949178 73.0
30.169873034 65.0
30.174796890 52.0
30.179720746 41.0
30.184644602 44.0
30.189568458 59.0
30.194492314 45.0
30.199416170 49.0
30.204340026 62.0
30.209263882 60.0
30.214187738 57.0
30.219111594 60.0
30.224035450 60.0
30.228959306 52.0
30.233883162 51.0
30.238807018 50.0
30.243730874 56.0
30.248654730 47.0
30.253578587 57.0
30.258502443 56.0
30.263426299 54.0
30.268350155 67.0
30.273274011 49.0
30.278197867 64.0
30.283121723 66.0
30.288045579 63.0
30.292969435 65.0
30.297893291 61.0
30.302817147 56.0
30.307741003 61.0
30.312664859 70.0
30.317588715 59.0
30.322512571 43.0
30.327436427 65.0
30.332360283 57.0
30.337284139 45.0
30.342207995 52.0
30.347131851 58.0
30.352055707 71.0
30.356979563 69.0
30.361903419 45.0
30.366827275 57.0
30.371751131 59.0
30.376674987 55.0
30.381598843 58.0
30.386522699 61.0
30.391446555 54.0
30.396370411 68.0
30.401294267 53.0
30.406218123 54.0
30.411141979 39.0
30.416065835 54.0
30.420989691 75.0
30.425913547 77.0
30.430837403 64.0
30.435761259 54.0
30.440685115 53.0
30.445608971 52.0
30.450532827 39.0
30.455456683 49.0
30.460380539 56.0
30.465304395 52.0
30.470228251 63.0
30.475152107 68.0
30.480075963 55.0
30.484999819 74.0
30.489923675 57.0
30.494847531 55.0
30.499771387 51.0
30.504695243 56.0
30.509619099 50.0
30.514542955 59.0
30.519466811 58.0
30.524390667 55.0
30.529314523 65.0
30.534238379 52.0
30.539162235 49.0
30.544086091 67.0
30.549009947 67.0
30.553933803 73.0
30.558857659 49.0
30.563781515 52.0
30.568705371 51.0
30.573629227 60.0
30.578553083 67.0
30.583476939 48.0
30.588400795 59.0
30.593324651 63.0
30.598248507 59.0
30.603172363 56.0
30.608096219 54.0
30.613020075 50.0
30.617943931 57.0
30.622867787 46.0
30.627791643 52.0
30.632715499 59.0
30.637639355 56.0
30.642563211 47.0
30.647487067 58.0
30.652410923 58.0
30.657334779 45.0
30.662258635 55.0
30.667182491 69.0
30.672106347 52.0
30.677030203 67.0
30.681954059 44.0
30.686877915 52.0
30.691801771 44.0
30.696725627 54.0
30.701649483 70.0
30.706573339 57.0
30.711497195 51.0
30.716421051 69.0
30.721344907 56.0
30.726268763 75.0
30.731192619 54.0
30.736116475 58.0
30.741040331 63.0
30.745964187 53.0
30.750888043 57.0
30.755811900 51.0
30.760735756 50.0
30.765659612 58.0
30.770583468 54.0
30.775507324 44.0
30.780431180 71.0
30.785355036 70.0
30.790278892 56.0
30.795202748 74.0
30.800126604 78.0
30.805050460 48.0
30.809974316 43.0
30.814898172 50.0
30.819822028 63.0
30.824745884 67.0
30.829669740 40.0
30.834593596 51.0
30.839517452 51.0
30.844441308 40.0
30.849365164 60.0
30.854289020 47.0
30.859212876 52.0
30.864136732 59.0
30.869060588 63.0
30.873984444 54.0
30.878908300 51.0
30.883832156 51.0
30.888756012 50.0
30.893679868 45.0
30.898603724 72.0
30.903527580 63.0
30.908451436 50.0
30.913375292 58.0
30.918299148 61.0
30.923223004 45.0
30.928146860 68.0
30.933070716 64.0
30.937994572 64.0
30.942918428 60.0
30.947842284 66.0
30.952766140 49.0
30.957689996 56.0
30.962613852 63.0
30.967537708 74.0
30.972461564 58.0
30.977385420 44.0
30.982309276 44.0
30.987233132 57.0
30.992156988 58.0
30.997080844 62.0
31.002004700 57.0
31.006928556 55.0
31.011852412 54.0
31.016776268 53.0
31.021700124 56.0
31.026623980 68.0
31.031547836 53.0
31.036471692 54.0
31.041395548 64.0
31.046319404 59.0
31.051243260 61.0
31.056167116 51.0
31.061090972 48.0
31.066014828 63.0
31.070938684 45.0
31.075862540 49.0
31.080786396 52.0
31.085710252 49.0
31.090634108 55.0
31.095557964 59.0
31.100481820 62.0
31.105405676 67.0
31.110329532 57.0
31.115253388 57.0
31.120177244 57.0
31.125101100 67.0
31.130024956 65.0
31.134948812 44.0
31.139872668 50.0
31.144796524 42.0
31.149720380 52.0
31.154644236 59.0
31.159568092 53.0
31.164491948 67.0
31.169415804 65.0
31.174339660 49.0
31.179263516 48.0
31.184187372 68.0
31.189111228 63.0
31.194035084 62.0
31.198958940 54.0
31.203882796 61.0
31.208806652 44.0
31.213730508 57.0
31.218654364 62.0
31.223578220 46.0
31.228502076 59.0
31.233425932 55.0
31.238349788 63.0
31.243273644 59.0
31.248197500 60.0
31.253121357 59.0
31.258045213 54.0
31.262969069 69.0
31.267892925 43.0
31.272816781 68.0
31.277740637 48.0
31.282664493 53.0
31.287588349 54.0
31.292512205 69.0
31.297436061 48.0
31.302359917 46.0
31.307283773 73.0
31.312207629 59.0
31.317131485 72.0
31.322055341 66.0
31.326979197 50.0
31.331903053 66.0
31.336826909 59.0
31.341750765 56.0
31.346674621 68.0
31.351598477 61.0
31.356522333 60.0
31.361446189 57.0
31.366370045 50.0
31.371293901 47.0
31.376217757 55.0
31.381141613 55.0
31.386065469 55.0
31.390989325 59.0
31.395913181 52.0
31.400837037 51.0
31.405760893 72.0
31.410684749 84.0
31.415608605 46.0
31.420532461 64.0
31.425456317 64.0
31.430380173 53.0
31.435304029 57.0
31.440227885 55.0
31.445151741 56.0
31.450075597 69.0
31.454999453 59.0
31.459923309 53.0
31.464847165 41.0
31.469771021 57.0
31.474694877 55.0
31.479618733 67.0
31.484542589 83.0
31.489466445 52.0
31.494390301 67.0
31.499314157 50.0
31.504238013 64.0
31.509161869 66.0
31.514085725 64.0
31.519009581 55.0
31.523933437 58.0
31.528857293 65.0
31.533781149 41.0
31.538705005 65.0
31.543628861 50.0
31.548552717 38.0
31.553476573 46.0
31.558400429 63.0
31.563324285 54.0
31.568248141 58.0
31.573171997 46.0
31.578095853 71.0
31.583019709 50.0
31.587943565 53.0
31.592867421 68.0
31.597791277 63.0
31.602715133 53.0
31.607638989 58.0
31.612562845 54.0
31.617486701 56.0
31.622410557 57.0
31.627334413 60.0
31.632258269 52.0
31.637182125 53.0
31.642105981 52.0
31.647029837 51.0
31.651953693 53.0
31.656877549 57.0
31.661801405 60.0
31.666725261 47.0
31.671649117 59.0
31.676572973 47.0
31.681496829 64.0
31.686420685 47.0
31.691344541 46.0
31.696268397 56.0
31.701192253 66.0
31.706116109 57.0
31.711039965 71.0
31.715963821 53.0
31.720887677 56.0
31.725811533 58.0
31.730735389 54.0
31.735659245 52.0
31.740583101 59.0
31.745506957 61.0
31.750430813 61.0
31.755354670 58.0
31.760278526 59.0
31.765202382 53.0
31.770126238 60.0
31.775050094 60.0
31.779973950 39.0
31.784897806 62.0
31.789821662 64.0
31.794745518 67.0
31.799669374 60.0
31.804593230 57.0
31.809517086 61.0
31.814440942 53.0
31.819364798 58.0
31.824288654 54.0
31.829212510 42.0
31.834136366 60.0
31.839060222 64.0
31.843984078 51.0
31.848907934 65.0
31.853831790 57.0
31.858755646 55.0
31.863679502 56.0
31.868603358 57.0
31.873527214 65.0
31.878451070 51.0
31.883374926 51.0
31.888298782 48.0
31.893222638 71.0
31.898146494 65.0
31.903070350 59.0
31.907994206 61.0
31.912918062 61.0
31.917841918 61.0
31.922765774 48.0
31.927689630 55.0
31.932613486 58.0
31.937537342 49.0
31.942461198 62.0
31.947385054 72.0
31.952308910 49.0
31.957232766 62.0
31.962156622 58.0
31.967080478 52.0
31.972004334 56.0
31.976928190 61.0
31.981852046 46.0
31.986775902 46.0
31.991699758 50.0
31.996623614 57.0
32.001547470 52.0
32.006471326 49.0
32.011395182 47.0
32.016319038 55.0
32.021242894 46.0
32.026166750 45.0
32.031090606 57.0
32.036014462 61.0
32.040938318 67.0
32.045862174 49.0
32.050786030 56.0
32.055709886 60.0
32.060633742 67.0
32.065557598 65.0
32.070481454 50.0
32.075405310 52.0
32.080329166 68.0
32.085253022 55.0
32.090176878 52.0
32.095100734 47.0
32.100024590 41.0
32.104948446 67.0
32.109872302 65.0
32.114796158 64.0
32.119720014 52.0
32.124643870 50.0
32.129567726 61.0
32.134491582 51.0
32.139415438 60.0
32.144339294 54.0
32.149263150 57.0
32.154187006 60.0
32.159110862 66.0
32.164034718 54.0
32.168958574 62.0
32.173882430 55.0
32.178806286 61.0
32.183730142 56.0
32.188653998 48.0
32.193577854 61.0
32.198501710 62.0
32.203425566 51.0
32.208349422 53.0
32.213273278 42.0
32.218197134 64.0
32.223120990 40.0
32.228044846 40.0
32.232968702 65.0
32.237892558 62.0
32.242816414 48.0
32.247740270 58.0
32.252664127 62.0
32.257587983 64.0
32.262511839 65.0
32.267435695 54.0
32.272359551 59.0
32.277283407 51.0
32.282207263 43.0
32.287131119 57.0
32.292054975 55.0
32.296978831 56.0
32.301902687 50.0
32.306826543 58.0
32.311750399 61.0
32.316674255 65.0
32.321598111 60.0
32.326521967 54.0
32.331445823 59.0
32.336369679 66.0
32.341293535 72.0
32.346217391 52.0
32.351141247 45.0
32.356065103 62.0
32.360988959 57.0
32.365912815 47.0
32.370836671 53.0
32.375760527 43.0
32.380684383 48.0
32.385608239 59.0
32.390532095 54.0
32.395455951 60.0
32.400379807 57.0
32.405303663 65.0
32.410227519 66.0
32.415151375 60.0
32.420075231 49.0
32.424999087 49.0
32.429922943 78.0
32.434846799 63.0
32.439770655 50.0
32.444694511 45.0
32.449618367 57.0
32.454542223 54.0
32.459466079 61.0
32.464389935 53.0
32.469313791 63.0
32.474237647 67.0
32.479161503 51.0
32.484085359 58.0
32.489009215 55.0
32.493933071 57.0
32.498856927 57.0
32.503780783 53.0
32.508704639 55.0
32.513628495 49.0
32.518552351 49.0
32.523476207 43.0
32.528400063 59.0
32.533323919 48.0
32.538247775 51.0
32.543171631 64.0
32.548095487 56.0
32.553019343 56.0
32.557943199 56.0
32.562867055 55.0
32.567790911 58.0
32.572714767 53.0
32.577638623 57.0
32.582562479 60.0
32.587486335 49.0
32.592410191 56.0
32.597334047 57.0
32.602257903 61.0
32.607181759 55.0
32.612105615 52.0
32.617029471 46.0
32.621953327 66.0
32.626877183 58.0
32.631801039 51.0
32.636724895 66.0
32.641648751 50.0
32.646572607 53.0
32.651496463 62.0
32.656420319 49.0
32.661344175 52.0
32.666268031 52.0
32.671191887 58.0
32.676115743 68.0
32.681039599 78.0
32.685963455 52.0
32.690887311 63.0
32.695811167 55.0
32.700735023 51.0
32.705658879 78.0
32.710582735 66.0
32.715506591 64.0
32.720430447 58.0
32.725354303 60.0
32.730278159 71.0
32.735202015 35.0
32.740125871 48.0
32.745049727 59.0
32.749973583 61.0
32.754897440 60.0
32.759821296 48.0
32.764745152 56.0
32.769669008 56.0
32.774592864 56.0
32.779516720 50.0
32.784440576 41.0
32.789364432 61.0
32.794288288 56.0
32.799212144 53.0
32.804136000 55.0
32.809059856 54.0
32.813983712 48.0
32.818907568 46.0
32.823831424 53.0
32.828755280 68.0
32.833679136 64.0
32.838602992 59.0
32.843526848 54.0
32.848450704 47.0
32.853374560 71.0
32.858298416 48.0
32.863222272 71.0
32.868146128 59.0
32.873069984 64.0
32.877993840 72.0
32.882917696 55.0
32.887841552 62.0
32.892765408 63.0
32.897689264 59.0
32.902613120 55.0
32.907536976 64.0
32.912460832 61.0
32.917384688 65.0
32.922308544 64.0
32.927232400 56.0
32.932156256 56.0
32.937080112 67.0
32.942003968 59.0
32.946927824 64.0
32.951851680 61.0
32.956775536 47.0
32.961699392 63.0
32.966623248 56.0
32.971547104 55.0
32.976470960 50.0
32.981394816 48.0
32.986318672 55.0
32.991242528 52.0
32.996166384 55.0
33.001090240 55.0
33.006014096 59.0
33.010937952 58.0
33.015861808 55.0
33.020785664 62.0
33.025709520 53.0
33.030633376 78.0
33.035557232 54.0
33.040481088 57.0
33.045404944 60.0
33.050328800 67.0
33.055252656 57.0
33.060176512 48.0
33.065100368 66.0
33.070024224 61.0
33.074948080 54.0
33.079871936 54.0
33.084795792 56.0
33.089719648 41.0
33.094643504 58.0
33.099567360 57.0
33.104491216 43.0
33.109415072 54.0
33.114338928 54.0
33.119262784 59.0
33.124186640 48.0
33.129110496 66.0
33.134034352 58.0
33.138958208 50.0
33.143882064 52.0
33.148805920 44.0
33.153729776 47.0
33.158653632 60.0
33.163577488 52.0
33.168501344 53.0
33.173425200 61.0
33.178349056 57.0
33.183272912 57.0
33.188196768 62.0
33.193120624 51.0
33.198044480 57.0
33.202968336 56.0
33.207892192 55.0
33.212816048 65.0
33.217739904 56.0
33.222663760 48.0
33.227587616 56.0
33.232511472 58.0
33.237435328 52.0
33.242359184 55.0
33.247283040 62.0
33.252206897 61.0
33.257130753 54.0
33.262054609 56.0
33.266978465 58.0
33.271902321 61.0
33.276826177 67.0
33.281750033 52.0
33.286673889 64.0
33.291597745 64.0
33.296521601 59.0
33.301445457 57.0
33.306369313 61.0
33.311293169 55.0
33.316217025 66.0
33.321140881 43.0
33.326064737 63.0
33.330988593 64.0
33.335912449 64.0
33.340836305 50.0
33.345760161 65.0
33.350684017 51.0
33.355607873 69.0
33.360531729 71.0
33.365455585 70.0
33.370379441 74.0
33.375303297 56.0
33.380227153 64.0
33.385151009 67.0
33.390074865 69.0
33.394998721 57.0
33.399922577 52.0
33.404846433 63.0
33.409770289 90.0
33.414694145 65.0
33.419618001 66.0
33.424541857 85.0
33.429465713 68.0
33.434389569 65.0
33.439313425 65.0
33.444237281 83.0
33.449161137 61.0
33.454084993 59.0
33.459008849 86.0
33.463932705 70.0
33.468856561 74.0
33.473780417 60.0
33.478704273 87.0
33.483628129 67.0
33.488551985 65.0
33.493475841 65.0
33.498399697 78.0
33.503323553 72.0
33.508247409 75.0
33.513171265 66.0
33.518095121 77.0
33.523018977 57.0
33.527942833 66.0
33.532866689 98.0
33.537790545 67.0
33.542714401 69.0
33.547638257 93.0
33.552562113 63.0
33.557485969 84.0
33.562409825 63.0
33.567333681 73.0
33.572257537 71.0
33.577181393 64.0
33.582105249 58.0
33.587029105 68.0
33.591952961 66.0
33.596876817 71.0
33.601800673 72.0
33.606724529 59.0
33.611648385 56.0
33.616572241 62.0
33.621496097 47.0
33.626419953 63.0
33.631343809 60.0
33.636267665 52.0
33.641191521 59.0
33.646115377 63.0
33.651039233 76.0
33.655963089 61.0
33.660886945 65.0
33.665810801 43.0
33.670734657 52.0
33.675658513 82.0
33.680582369 76.0
33.685506225 71.0
33.690430081 56.0
33.695353937 62.0
33.700277793 70.0
33.705201649 61.0
33.710125505 62.0
33.715049361 78.0
33.719973217 65.0
33.724897073 53.0
33.729820929 63.0
33.734744785 58.0
33.739668641 67.0
33.744592497 73.0
33.749516353 59.0
33.754440210 78.0
33.759364066 45.0
33.764287922 73.0
33.769211778 78.0
33.774135634 64.0
33.779059490 51.0
33.783983346 59.0
33.788907202 77.0
33.793831058 68.0
33.798754914 56.0
33.803678770 50.0
33.808602626 66.0
33.813526482 70.0
33.818450338 54.0
33.823374194 70.0
33.828298050 56.0
33.833221906 71.0
33.838145762 76.0
33.843069618 62.0
33.847993474 64.0
33.852917330 53.0
33.857841186 61.0
33.862765042 62.0
33.867688898 67.0
33.872612754 83.0
33.877536610 66.0
33.882460466 70.0
33.887384322 74.0
33.892308178 68.0
33.897232034 91.0
33.902155890 105.0
33.907079746 95.0
33.912003602 125.0
33.916927458 125.0
33.921851314 176.0
33.926775170 192.0
33.931699026 353.0
33.936622882 434.0
33.941546738 616.0
33.946470594 669.0
33.951394450 714.0
33.956318306 790.0
33.961242162 742.0
33.966166018 652.0
33.971089874 558.0
33.976013730 414.0
33.980937586 335.0
33.985861442 272.0
33.990785298 184.0
33.995709154 156.0
34.000633010 147.0
34.005556866 124.0
34.010480722 110.0
34.015404578 115.0
34.020328434 86.0
34.025252290 116.0
34.030176146 95.0
34.035100002 94.0
34.040023858 86.0
34.044947714 87.0
34.049871570 85.0
34.054795426 63.0
34.059719282 88.0
34.064643138 86.0
34.069566994 90.0
34.074490850 76.0
34.079414706 77.0
34.084338562 66.0
34.089262418 64.0
34.094186274 75.0
34.099110130 63.0
34.104033986 72.0
34.108957842 70.0
34.113881698 58.0
34.118805554 60.0
34.123729410 76.0
34.128653266 62.0
34.133577122 61.0
34.138500978 60.0
34.143424834 71.0
34.148348690 69.0
34.153272546 66.0
34.158196402 74.0
34.163120258 79.0
34.168044114 74.0
34.172967970 62.0
34.177891826 63.0
34.182815682 61.0
34.187739538 74.0
34.192663394 74.0
34.197587250 75.0
34.202511106 70.0
34.207434962 66.0
34.212358818 57.0
34.217282674 65.0
34.222206530 65.0
34.227130386 61.0
34.232054242 66.0
34.236978098 71.0
34.241901954 64.0
34.246825810 61.0
34.251749667 69.0
34.256673523 52.0
34.261597379 58.0
34.266521235 65.0
34.271445091 56.0
34.276368947 60.0
34.281292803 58.0
34.286216659 68.0
34.291140515 61.0
34.296064371 67.0
34.300988227 59.0
34.305912083 56.0
34.310835939 60.0
34.315759795 64.0
34.320683651 66.0
34.325607507 58.0
34.330531363 73.0
34.335455219 51.0
34.340379075 69.0
34.345302931 69.0
34.350226787 78.0
34.355150643 68.0
34.360074499 69.0
34.364998355 47.0
34.369922211 54.0
34.374846067 58.0
34.379769923 72.0
34.384693779 83.0
34.389617635 67.0
34.394541491 58.0
34.399465347 70.0
34.404389203 57.0
34.409313059 61.0
34.414236915 70.0
34.419160771 62.0
34.424084627 69.0
34.429008483 49.0
34.433932339 66.0
34.438856195 53.0
34.443780051 58.0
34.448703907 67.0
34.453627763 64.0
34.458551619 61.0
34.463475475 68.0
34.468399331 68.0
34.473323187 65.0
34.478247043 62.0
34.483170899 60.0
34.488094755 63.0
34.493018611 65.0
34.497942467 62.0
34.502866323 60.0
34.507790179 59.0
34.512714035 57.0
34.517637891 64.0
34.522561747 75.0
34.527485603 61.0
34.532409459 68.0
34.537333315 67.0
34.542257171 57.0
34.547181027 79.0
34.552104883 60.0
34.557028739 59.0
34.561952595 63.0
34.566876451 55.0
34.571800307 60.0
34.576724163 57.0
34.581648019 63.0
34.586571875 49.0
34.591495731 68.0
34.596419587 48.0
34.601343443 49.0
34.606267299 66.0
34.611191155 50.0
34.616115011 69.0
34.621038867 70.0
34.625962723 54.0
34.630886579 45.0
34.635810435 59.0
34.640734291 56.0
34.645658147 72.0
34.650582003 71.0
34.655505859 69.0
34.660429715 60.0
34.665353571 80.0
34.670277427 58.0
34.675201283 46.0
34.680125139 62.0
34.685048995 79.0
34.689972851 60.0
34.694896707 60.0
34.699820563 65.0
34.704744419 88.0
34.709668275 51.0
34.714592131 63.0
34.719515987 61.0
34.724439843 74.0
34.729363699 65.0
34.734287555 65.0
34.739211411 72.0
34.744135267 63.0
34.749059123 64.0
34.753982980 73.0
34.758906836 62.0
34.763830692 64.0
34.768754548 72.0
34.773678404 72.0
34.778602260 58.0
34.783526116 73.0
34.788449972 85.0
34.793373828 51.0
34.798297684 64.0
34.803221540 76.0
34.808145396 60.0
34.813069252 77.0
34.817993108 72.0
34.822916964 78.0
34.827840820 73.0
34.832764676 69.0
34.837688532 72.0
34.842612388 63.0
34.847536244 70.0
34.852460100 68.0
34.857383956 70.0
34.862307812 76.0
34.867231668 54.0
34.872155524 70.0
34.877079380 69.0
34.882003236 63.0
34.886927092 68.0
34.891850948 74.0
34.896774804 74.0
34.901698660 54.0
34.906622516 52.0
34.911546372 64.0
34.916470228 48.0
34.921394084 59.0
34.926317940 77.0
34.931241796 60.0
34.936165652 69.0
34.941089508 67.0
34.946013364 64.0
34.950937220 60.0
34.955861076 64.0
34.960784932 71.0
34.965708788 57.0
34.970632644 58.0
34.975556500 60.0
34.980480356 54.0
34.985404212 56.0
34.990328068 60.0
34.995251924 62.0
35.000175780 52.0
35.005099636 68.0
35.010023492 54.0
35.014947348 64.0
35.019871204 62.0
35.024795060 68.0
35.029718916 57.0
35.034642772 67.0
35.039566628 62.0
35.044490484 65.0
35.049414340 55.0
35.054338196 72.0
35.059262052 64.0
35.064185908 72.0
35.069109764 73.0
35.074033620 57.0
35.078957476 71.0
35.083881332 55.0
35.088805188 71.0
35.093729044 67.0
35.098652900 76.0
35.103576756 77.0
35.108500612 63.0
35.113424468 57.0
35.118348324 62.0
35.123272180 61.0
35.128196036 65.0
35.133119892 66.0
35.138043748 69.0
35.142967604 74.0
35.147891460 63.0
35.152815316 71.0
35.157739172 56.0
35.162663028 71.0
35.167586884 62.0
35.172510740 61.0
35.177434596 63.0
35.182358452 71.0
35.187282308 60.0
35.192206164 64.0
35.197130020 59.0
35.202053876 49.0
35.206977732 56.0
35.211901588 55.0
35.216825444 65.0
35.221749300 76.0
35.226673156 55.0
35.231597012 63.0
35.236520868 67.0
35.241444724 66.0
35.246368580 64.0
35.251292437 83.0
35.256216293 68.0
35.261140149 56.0
35.266064005 60.0
35.270987861 64.0
35.275911717 74.0
35.280835573 76.0
35.285759429 57.0
35.290683285 64.0
35.295607141 72.0
35.300530997 58.0
35.305454853 56.0
35.310378709 64.0
35.315302565 69.0
35.320226421 67.0
35.325150277 74.0
35.330074133 67.0
35.334997989 67.0
35.339921845 52.0
35.344845701 59.0
35.349769557 61.0
35.354693413 66.0
35.359617269 53.0
35.364541125 70.0
35.369464981 71.0
35.374388837 56.0
35.379312693 50.0
35.384236549 59.0
35.389160405 67.0
35.394084261 69.0
35.399008117 62.0
35.403931973 63.0
35.408855829 83.0
35.413779685 57.0
35.418703541 68.0
35.423627397 69.0
35.428551253 70.0
35.433475109 58.0
35.438398965 73.0
35.443322821 66.0
35.448246677 63.0
35.453170533 69.0
35.458094389 61.0
35.463018245 82.0
35.467942101 68.0
35.472865957 65.0
35.477789813 68.0
35.482713669 69.0
35.487637525 70.0
35.492561381 58.0
35.497485237 66.0
35.502409093 62.0
35.507332949 67.0
35.512256805 52.0
35.517180661 71.0
35.522104517 56.0
35.527028373 68.0
35.531952229 57.0
35.536876085 67.0
35.541799941 66.0
35.546723797 57.0
35.551647653 67.0
35.556571509 70.0
35.561495365 69.0
35.566419221 58.0
35.571343077 66.0
35.576266933 68.0
35.581190789 49.0
35.586114645 62.0
35.591038501 72.0
35.595962357 72.0
35.600886213 64.0
35.605810069 69.0
35.610733925 70.0
35.615657781 70.0
35.620581637 69.0
35.625505493 71.0
35.630429349 85.0
35.635353205 62.0
35.640277061 50.0
35.645200917 64.0
35.650124773 67.0
35.655048629 61.0
35.659972485 73.0
35.664896341 53.0
35.669820197 65.0
35.674744053 66.0
35.679667909 57.0
35.684591765 72.0
35.689515621 63.0
35.694439477 64.0
35.699363333 75.0
35.704287189 62.0
35.709211045 80.0
35.714134901 64.0
35.719058757 61.0
35.723982613 57.0
35.728906469 69.0
35.733830325 68.0
35.738754181 78.0
35.743678037 68.0
35.748601893 67.0
35.753525750 61.0
35.758449606 72.0
35.763373462 59.0
35.768297318 67.0
35.773221174 72.0
35.778145030 66.0
35.783068886 61.0
35.787992742 65.0
35.792916598 61.0
35.797840454 86.0
35.802764310 71.0
35.807688166 71.0
35.812612022 60.0
35.817535878 71.0
35.822459734 61.0
35.827383590 65.0
35.832307446 75.0
35.837231302 55.0
35.842155158 76.0
35.847079014 63.0
35.852002870 65.0
35.856926726 69.0
35.861850582 63.0
35.866774438 73.0
35.871698294 82.0
35.876622150 64.0
35.881546006 81.0
35.886469862 75.0
35.891393718 51.0
35.896317574 59.0
35.901241430 69.0
35.906165286 69.0
35.911089142 65.0
35.916012998 70.0
35.920936854 78.0
35.925860710 66.0
35.930784566 79.0
35.935708422 81.0
35.940632278 94.0
35.945556134 67.0
35.950479990 97.0
35.955403846 86.0
35.960327702 84.0
35.965251558 76.0
35.970175414 77.0
35.975099270 83.0
35.980023126 71.0
35.984946982 96.0
35.989870838 74.0
35.994794694 88.0
35.999718550 85.0
36.004642406 97.0
36.009566262 85.0
36.014490118 90.0
36.019413974 92.0
36.024337830 80.0
36.029261686 104.0
36.034185542 95.0
36.039109398 82.0
36.044033254 114.0
36.048957110 114.0
36.053880966 90.0
36.058804822 118.0
36.063728678 122.0
36.068652534 122.0
36.073576390 148.0
36.078500246 125.0
36.083424102 144.0
36.088347958 126.0
36.093271814 126.0
36.098195670 117.0
36.103119526 114.0
36.108043382 106.0
36.112967238 133.0
36.117891094 103.0
36.122814950 110.0
36.127738806 104.0
36.132662662 119.0
36.137586518 116.0
36.142510374 125.0
36.147434230 94.0
36.152358086 105.0
36.157281942 95.0
36.162205798 97.0
36.167129654 111.0
36.172053510 99.0
36.176977366 100.0
36.181901222 72.0
36.186825078 91.0
36.191748934 88.0
36.196672790 100.0
36.201596646 100.0
36.206520502 101.0
36.211444358 88.0
36.216368214 92.0
36.221292070 89.0
36.226215926 99.0
36.231139782 93.0
36.236063638 93.0
36.240987494 104.0
36.245911350 96.0
36.250835207 81.0
36.255759063 94.0
36.260682919 103.0
36.265606775 99.0
36.270530631 82.0
36.275454487 78.0
36.280378343 90.0
36.285302199 92.0
36.290226055 94.0
36.295149911 94.0
36.300073767 73.0
36.304997623 88.0
36.309921479 96.0
36.314845335 91.0
36.319769191 80.0
36.324693047 89.0
36.329616903 86.0
36.334540759 107.0
36.339464615 113.0
36.344388471 94.0
36.349312327 86.0
36.354236183 81.0
36.359160039 95.0
36.364083895 103.0
36.369007751 101.0
36.373931607 95.0
36.378855463 104.0
36.383779319 79.0
36.388703175 94.0
36.393627031 97.0
36.398550887 94.0
36.403474743 86.0
36.408398599 77.0
36.413322455 82.0
36.418246311 98.0
36.423170167 92.0
36.428094023 77.0
36.433017879 80.0
36.437941735 96.0
36.442865591 92.0
36.447789447 81.0
36.452713303 92.0
36.457637159 85.0
36.462561015 89.0
36.467484871 103.0
36.472408727 118.0
36.477332583 92.0
36.482256439 97.0
36.487180295 85.0
36.492104151 84.0
36.497028007 77.0
36.501951863 88.0
36.506875719 86.0
36.511799575 90.0
36.516723431 89.0
36.521647287 105.0
36.526571143 93.0
36.531494999 120.0
36.536418855 84.0
36.541342711 118.0
36.546266567 90.0
36.551190423 83.0
36.556114279 100.0
36.561038135 91.0
36.565961991 88.0
36.570885847 106.0
36.575809703 117.0
36.580733559 109.0
36.585657415 108.0
36.590581271 116.0
36.595505127 105.0
36.600428983 104.0
36.605352839 117.0
36.610276695 128.0
36.615200551 98.0
36.620124407 100.0
36.625048263 122.0
36.629972119 103.0
36.634895975 101.0
36.639819831 125.0
36.644743687 117.0
36.649667543 116.0
36.654591399 106.0
36.659515255 119.0
36.664439111 122.0
36.669362967 124.0
36.674286823 90.0
36.679210679 107.0
36.684134535 128.0
36.689058391 122.0
36.693982247 119.0
36.698906103 130.0
36.703829959 116.0
36.708753815 123.0
36.713677671 117.0
36.718601527 117.0
36.723525383 112.0
36.728449239 114.0
36.733373095 134.0
36.738296951 121.0
36.743220807 116.0
36.748144663 126.0
36.753068520 118.0
36.757992376 129.0
36.762916232 119.0
36.767840088 112.0
36.772763944 144.0
36.777687800 136.0
36.782611656 126.0
36.787535512 134.0
36.792459368 148.0
36.797383224 143.0
36.802307080 132.0
36.807230936 160.0
36.812154792 157.0
36.817078648 134.0
36.822002504 146.0
36.826926360 146.0
36.831850216 146.0
36.836774072 149.0
36.841697928 129.0
36.846621784 135.0
36.851545640 147.0
36.856469496 141.0
36.861393352 149.0
36.866317208 165.0
36.871241064 143.0
36.876164920 150.0
36.881088776 150.0
36.886012632 148.0
36.890936488 171.0
36.895860344 144.0
36.900784200 134.0
36.905708056 156.0
36.910631912 158.0
36.915555768 153.0
36.920479624 170.0
36.925403480 159.0
36.930327336 153.0
36.935251192 189.0
36.940175048 193.0
36.945098904 167.0
36.950022760 159.0
36.954946616 165.0
36.959870472 161.0
36.964794328 179.0
36.969718184 194.0
36.974642040 176.0
36.979565896 195.0
36.984489752 184.0
36.989413608 171.0
36.994337464 197.0
36.999261320 176.0
37.004185176 171.0
37.009109032 183.0
37.014032888 191.0
37.018956744 192.0
37.023880600 185.0
37.028804456 179.0
37.033728312 184.0
37.038652168 203.0
37.043576024 165.0
37.048499880 206.0
37.053423736 197.0
37.058347592 193.0
37.063271448 219.0
37.068195304 166.0
37.073119160 269.0
37.078043016 259.0
37.082966872 207.0
37.087890728 203.0
37.092814584 185.0
37.097738440 285.0
37.102662296 259.0
37.107586152 201.0
37.112510008 285.0
37.117433864 280.0
37.122357720 277.0
37.127281576 276.0
37.132205432 265.0
37.137129288 199.0
37.142053144 255.0
37.146977000 261.0
37.151900856 273.0
37.156824712 263.0
37.161748568 297.0
37.166672424 299.0
37.171596280 289.0
37.176520136 303.0
37.181443992 262.0
37.186367848 293.0
37.191291704 263.0
37.196215560 266.0
37.201139416 293.0
37.206063272 310.0
37.210987128 311.0
37.215910984 342.0
37.220834840 313.0
37.225758696 278.0
37.230682552 308.0
37.235606408 331.0
37.240530264 323.0
37.245454120 313.0
37.250377977 331.0
37.255301833 347.0
37.260225689 346.0
37.265149545 364.0
37.270073401 359.0
37.274997257 375.0
37.279921113 363.0
37.284844969 354.0
37.289768825 354.0
37.294692681 362.0
37.299616537 359.0
37.304540393 380.0
37.309464249 373.0
37.314388105 416.0
37.319311961 433.0
37.324235817 420.0
37.329159673 419.0
37.334083529 409.0
37.339007385 429.0
37.343931241 464.0
37.348855097 470.0
37.353778953 451.0
37.358702809 402.0
37.363626665 463.0
37.368550521 443.0
37.373474377 496.0
37.378398233 478.0
37.383322089 459.0
37.388245945 516.0
37.393169801 518.0
37.398093657 539.0
37.403017513 561.0
37.407941369 523.0
37.412865225 549.0
37.417789081 553.0
37.422712937 599.0
37.427636793 626.0
37.432560649 589.0
37.437484505 578.0
37.442408361 613.0
37.447332217 702.0
37.452256073 691.0
37.457179929 691.0
37.462103785 698.0
37.467027641 721.0
37.471951497 778.0
37.476875353 816.0
37.481799209 809.0
37.486723065 921.0
37.491646921 933.0
37.496570777 1011.0
37.501494633 1217.0
37.506418489 1274.0
37.511342345 1460.0
37.516266201 1628.0
37.521190057 1716.0
37.526113913 1902.0
37.531037769 2138.0
37.535961625 2143.0
37.540885481 2097.0
37.545809337 2458.0
37.550733193 2315.0
37.555657049 2369.0
37.560580905 2295.0
37.565504761 2300.0
37.570428617 2308.0
37.575352473 2134.0
37.580276329 2234.0
37.585200185 2233.0
37.590124041 2136.0
37.595047897 2301.0
37.599971753 2346.0
37.604895609 2534.0
37.609819465 2560.0
37.614743321 2766.0
37.619667177 2973.0
37.624591033 3357.0
37.629514889 3683.0
37.634438745 4092.0
37.639362601 4571.0
37.644286457 5200.0
37.649210313 5906.0
37.654134169 7091.0
37.659058025 8465.0
37.663981881 10545.0
37.668905737 13183.0
37.673829593 17144.0
37.678753449 23778.0
37.683677305 35607.0
37.688601161 57748.0
37.693525017 99991.0
37.698448873 154528.0
37.703372729 201060.0
37.708296585 223125.0
37.713220441 226164.0
37.718144297 214435.0
37.723068153 180144.0
37.727992009 130953.0
37.732915865 83096.0
37.737839721 52307.0
37.742763577 35029.0
37.747687433 24796.0
37.752611290 18699.0
37.757535146 15453.0
37.762459002 14088.0
37.767382858 13958.0
37.772306714 15371.0
37.777230570 18647.0
37.782154426 25202.0
37.787078282 38588.0
37.792002138 59368.0
37.796925994 84990.0
37.801849850 104459.0
37.806773706 113732.0
37.811697562 113733.0
37.816621418 104204.0
37.821545274 87324.0
37.826469130 62655.0
37.831392986 42007.0
37.836316842 27017.0
37.841240698 17965.0
37.846164554 12705.0
37.851088410 9292.0
37.856012266 7270.0
37.860936122 5810.0
37.865859978 4976.0
37.870783834 4349.0
37.875707690 3743.0
37.880631546 3307.0
37.885555402 2976.0
37.890479258 2775.0
37.895403114 2459.0
37.900326970 2299.0
37.905250826 2076.0
37.910174682 2030.0
37.915098538 1890.0
37.920022394 1770.0
37.924946250 1704.0
37.929870106 1545.0
37.934793962 1510.0
37.939717818 1448.0
37.944641674 1342.0
37.949565530 1305.0
37.954489386 1223.0
37.959413242 1117.0
37.964337098 1086.0
37.969260954 1109.0
37.974184810 1026.0
37.979108666 1031.0
37.984032522 952.0
37.988956378 906.0
37.993880234 902.0
37.998804090 811.0
38.003727946 819.0
38.008651802 763.0
38.013575658 722.0
38.018499514 719.0
38.023423370 694.0
38.028347226 699.0
38.033271082 698.0
38.038194938 645.0
38.043118794 637.0
38.048042650 633.0
38.052966506 711.0
38.057890362 616.0
38.062814218 588.0
38.067738074 619.0
38.072661930 590.0
38.077585786 575.0
38.082509642 559.0
38.087433498 555.0
38.092357354 479.0
38.097281210 553.0
38.102205066 505.0
38.107128922 465.0
38.112052778 476.0
38.116976634 493.0
38.121900490 477.0
38.126824346 464.0
38.131748202 421.0
38.136672058 482.0
38.141595914 459.0
38.146519770 402.0
38.151443626 431.0
38.156367482 399.0
38.161291338 405.0
38.166215194 366.0
38.171139050 360.0
38.176062906 404.0
38.180986762 343.0
38.185910618 364.0
38.190834474 394.0
38.195758330 358.0
38.200682186 365.0
38.205606042 376.0
38.210529898 303.0
38.215453754 329.0
38.220377610 302.0
38.225301466 294.0
38.230225322 281.0
38.235149178 298.0
38.240073034 328.0
38.244996890 325.0
38.249920747 260.0
38.254844603 296.0
38.259768459 283.0
38.264692315 291.0
38.269616171 271.0
38.274540027 260.0
38.279463883 210.0
38.284387739 264.0
38.289311595 211.0
38.294235451 257.0
38.299159307 220.0
38.304083163 214.0
38.309007019 267.0
38.313930875 197.0
38.318854731 214.0
38.323778587 191.0
38.328702443 203.0
38.333626299 197.0
38.338550155 188.0
38.343474011 203.0
38.348397867 187.0
38.353321723 185.0
38.358245579 172.0
38.363169435 191.0
38.368093291 147.0
38.373017147 171.0
38.377941003 164.0
38.382864859 175.0
38.387788715 167.0
38.392712571 162.0
38.397636427 174.0
38.402560283 150.0
38.407484139 143.0
38.412407995 142.0
38.417331851 154.0
38.422255707 147.0
38.427179563 147.0
38.432103419 156.0
38.437027275 149.0
38.441951131 153.0
38.446874987 140.0
38.451798843 146.0
38.456722699 149.0
38.461646555 150.0
38.466570411 133.0
38.471494267 148.0
38.476418123 129.0
38.481341979 142.0
38.486265835 130.0
38.491189691 129.0
38.496113547 133.0
38.501037403 133.0
38.505961259 103.0
38.510885115 127.0
38.515808971 145.0
38.520732827 148.0
38.525656683 116.0
38.530580539 132.0
38.535504395 127.0
38.540428251 110.0
38.545352107 119.0
38.550275963 111.0
38.555199819 123.0
38.560123675 117.0
38.565047531 144.0
38.569971387 131.0
38.574895243 91.0
38.579819099 119.0
38.584742955 120.0
38.589666811 127.0
38.594590667 96.0
38.599514523 114.0
38.604438379 113.0
38.609362235 100.0
38.614286091 121.0
38.619209947 118.0
38.624133803 122.0
38.629057659 95.0
38.633981515 115.0
38.638905371 109.0
38.643829227 88.0
38.648753083 99.0
38.653676939 105.0
38.658600795 107.0
38.663524651 87.0
38.668448507 116.0
38.673372363 106.0
38.678296219 109.0
38.683220075 101.0
38.688143931 92.0
38.693067787 93.0
38.697991643 100.0
38.702915499 85.0
38.707839355 112.0
38.712763211 100.0
38.717687067 105.0
38.722610923 94.0
38.727534779 107.0
38.732458635 92.0
38.737382491 121.0
38.742306347 91.0
38.747230203 99.0
38.752154060 103.0
38.757077916 99.0
38.762001772 92.0
38.766925628 75.0
38.771849484 86.0
38.776773340 93.0
38.781697196 96.0
38.786621052 109.0
38.791544908 92.0
38.796468764 105.0
38.801392620 87.0
38.806316476 78.0
38.811240332 81.0
38.816164188 76.0
38.821088044 87.0
38.826011900 87.0
38.830935756 90.0
38.835859612 97.0
38.840783468 96.0
38.845707324 88.0
38.850631180 78.0
38.855555036 95.0
38.860478892 101.0
38.865402748 91.0
38.870326604 70.0
38.875250460 88.0
38.880174316 81.0
38.885098172 78.0
38.890022028 87.0
38.894945884 81.0
38.899869740 85.0
38.904793596 96.0
38.909717452 80.0
38.914641308 78.0
38.919565164 78.0
38.924489020 89.0
38.929412876 82.0
38.934336732 91.0
38.939260588 79.0
38.944184444 79.0
38.949108300 98.0
38.954032156 76.0
38.958956012 89.0
38.963879868 81.0
38.968803724 87.0
38.973727580 75.0
38.978651436 67.0
38.983575292 76.0
38.988499148 68.0
38.993423004 77.0
38.998346860 88.0
39.003270716 69.0
39.008194572 81.0
39.013118428 78.0
39.018042284 69.0
39.022966140 72.0
39.027889996 74.0
39.032813852 77.0
39.037737708 82.0
39.042661564 69.0
39.047585420 84.0
39.052509276 67.0
39.057433132 78.0
39.062356988 83.0
39.067280844 86.0
39.072204700 72.0
39.077128556 78.0
39.082052412 80.0
39.086976268 88.0
39.091900124 65.0
39.096823980 80.0
39.101747836 70.0
39.106671692 62.0
39.111595548 86.0
39.116519404 70.0
39.121443260 64.0
39.126367116 80.0
39.131290972 79.0
39.136214828 70.0
39.141138684 66.0
39.146062540 70.0
39.150986396 84.0
39.155910252 92.0
39.160834108 78.0
39.165757964 64.0
39.170681820 71.0
39.175605676 69.0
39.180529532 85.0
39.185453388 77.0
39.190377244 83.0
39.195301100 83.0
39.200224956 77.0
39.205148812 60.0
39.210072668 84.0
39.214996524 73.0
39.219920380 74.0
39.224844236 64.0
39.229768092 63.0
39.234691948 68.0
39.239615804 48.0
39.244539660 78.0
39.249463517 70.0
39.254387373 62.0
39.259311229 75.0
39.264235085 64.0
39.269158941 76.0
39.274082797 88.0
39.279006653 78.0
39.283930509 71.0
39.288854365 85.0
39.293778221 71.0
39.298702077 68.0
39.303625933 79.0
39.308549789 80.0
39.313473645 85.0
39.318397501 74.0
39.323321357 72.0
39.328245213 67.0
39.333169069 69.0
39.338092925 90.0
39.343016781 83.0
39.347940637 66.0
39.352864493 75.0
39.357788349 68.0
39.362712205 78.0
39.367636061 74.0
39.372559917 67.0
39.377483773 88.0
39.382407629 78.0
39.387331485 82.0
39.392255341 87.0
39.397179197 64.0
39.402103053 82.0
39.407026909 88.0
39.411950765 70.0
39.416874621 69.0
39.421798477 77.0
39.426722333 74.0
39.431646189 73.0
39.436570045 91.0
39.441493901 68.0
39.446417757 78.0
39.451341613 74.0
39.456265469 81.0
39.461189325 73.0
39.466113181 98.0
39.471037037 86.0
39.475960893 65.0
39.480884749 84.0
39.485808605 68.0
39.490732461 69.0
39.495656317 73.0
39.500580173 89.0
39.505504029 79.0
39.510427885 81.0
39.515351741 86.0
39.520275597 88.0
39.525199453 74.0
39.530123309 78.0
39.535047165 80.0
39.539971021 82.0
39.544894877 80.0
39.549818733 81.0
39.554742589 78.0
39.559666445 91.0
39.564590301 97.0
39.569514157 83.0
39.574438013 80.0
39.579361869 80.0
39.584285725 69.0
39.589209581 73.0
39.594133437 84.0
39.599057293 79.0
39.603981149 96.0
39.608905005 100.0
39.613828861 84.0
39.618752717 92.0
39.623676573 93.0
39.628600429 75.0
39.633524285 75.0
39.638448141 86.0
39.643371997 92.0
39.648295853 75.0
39.653219709 89.0
39.658143565 83.0
39.663067421 78.0
39.667991277 76.0
39.672915133 92.0
39.677838989 67.0
39.682762845 75.0
39.687686701 78.0
39.692610557 82.0
39.697534413 84.0
39.702458269 78.0
39.707382125 78.0
39.712305981 72.0
39.717229837 57.0
39.722153693 71.0
39.727077549 98.0
39.732001405 76.0
39.736925261 62.0
39.741849117 71.0
39.746772973 79.0
39.751696830 82.0
39.756620686 59.0
39.761544542 80.0
39.766468398 64.0
39.771392254 81.0
39.776316110 78.0
39.781239966 65.0
39.786163822 75.0
39.791087678 64.0
39.796011534 70.0
39.800935390 72.0
39.805859246 62.0
39.810783102 69.0
39.815706958 72.0
39.820630814 68.0
39.825554670 76.0
39.830478526 82.0
39.835402382 79.0
39.840326238 81.0
39.845250094 76.0
39.850173950 75.0
39.855097806 73.0
39.860021662 81.0
39.864945518 79.0
39.869869374 87.0
39.874793230 75.0
39.879717086 78.0
39.884640942 72.0
39.889564798 78.0
39.894488654 68.0
39.899412510 44.0
39.904336366 65.0
39.909260222 73.0
39.914184078 60.0
39.919107934 76.0
39.924031790 85.0
39.928955646 69.0
39.933879502 74.0
39.938803358 68.0
39.943727214 71.0
39.948651070 73.0
39.953574926 59.0
39.958498782 70.0
39.963422638 49.0
39.968346494 72.0
39.973270350 72.0
39.978194206 64.0
39.983118062 68.0
39.988041918 68.0
39.992965774 69.0
39.997889630 72.0
