45.002461930 102.0
45.007385786 126.0
45.012309642 113.0
45.017233498 134.0
45.022157354 118.0
45.027081210 132.0
45.032005066 116.0
45.036928922 112.0
45.041852778 115.0
45.046776634 104.0
45.051700490 115.0
45.056624346 106.0
45.061548202 125.0
45.066472058 114.0
45.071395914 93.0
45.076319770 121.0
45.081243626 119.0
45.086167482 91.0
45.091091338 135.0
45.096015194 122.0
45.100939050 111.0
45.105862906 114.0
45.110786762 117.0
45.115710618 105.0
45.120634474 132.0
45.125558330 117.0
45.130482186 116.0
45.135406042 108.0
45.140329898 142.0
45.145253754 106.0
45.150177610 125.0
45.155101466 103.0
45.160025322 130.0
45.164949178 125.0
45.169873034 114.0
45.174796890 121.0
45.179720746 115.0
45.184644602 108.0
45.189568458 119.0
45.194492314 104.0
45.199416170 116.0
45.204340026 122.0
45.209263882 116.0
45.214187738 111.0
45.219111594 106.0
45.224035450 121.0
45.228959306 98.0
45.233883162 133.0
45.238807018 125.0
45.243730874 114.0
45.248654730 128.0
45.253578587 121.0
45.258502443 104.0
45.263426299 112.0
45.268350155 108.0
45.273274011 113.0
45.278197867 106.0
45.283121723 105.0
45.288045579 101.0
45.292969435 111.0
45.297893291 89.0
45.302817147 96.0
45.307741003 108.0
45.312664859 96.0
45.317588715 112.0
45.322512571 115.0
45.327436427 112.0
45.332360283 119.0
45.337284139 107.0
45.342207995 112.0
45.347131851 119.0
45.352055707 98.0
45.356979563 100.0
45.361903419 111.0
45.366827275 109.0
45.371751131 117.0
45.376674987 100.0
45.381598843 119.0
45.386522699 112.0
45.391446555 103.0
45.396370411 114.0
45.401294267 93.0
45.406218123 128.0
45.411141979 112.0
45.416065835 112.0
45.420989691 124.0
45.425913547 107.0
45.430837403 100.0
45.435761259 119.0
45.440685115 100.0
45.445608971 110.0
45.450532827 94.0
45.455456683 110.0
45.460380539 117.0
45.465304395 102.0
45.470228251 93.0
45.475152107 85.0
45.480075963 117.0
45.484999819 114.0
45.489923675 99.0
45.494847531 114.0
45.499771387 119.0
45.504695243 102.0
45.509619099 103.0
45.514542955 112.0
45.519466811 99.0
45.524390667 90.0
45.529314523 105.0
45.534238379 107.0
45.539162235 109.0
45.544086091 93.0
45.549009947 98.0
45.553933803 112.0
45.558857659 112.0
45.563781515 117.0
45.568705371 101.0
45.573629227 136.0
45.578553083 86.0
45.583476939 129.0
45.588400795 103.0
45.593324651 115.0
45.598248507 111.0
45.603172363 94.0
45.608096219 109.0
45.613020075 115.0
45.617943931 100.0
45.622867787 95.0
45.627791643 114.0
45.632715499 97.0
45.637639355 111.0
45.642563211 112.0
45.647487067 110.0
45.652410923 100.0
45.657334779 106.0
45.662258635 117.0
45.667182491 114.0
45.672106347 110.0
45.677030203 89.0
45.681954059 90.0
45.686877915 94.0
45.691801771 122.0
45.696725627 121.0
45.701649483 114.0
45.706573339 113.0
45.711497195 98.0
45.716421051 107.0
45.721344907 97.0
45.726268763 107.0
45.731192619 111.0
45.736116475 112.0
45.741040331 99.0
45.745964187 122.0
45.750888043 115.0
45.755811900 113.0
45.760735756 123.0
45.765659612 97.0
45.770583468 121.0
45.775507324 104.0
45.780431180 91.0
45.785355036 116.0
45.790278892 100.0
45.795202748 121.0
45.800126604 112.0
45.805050460 91.0
45.809974316 115.0
45.814898172 110.0
45.819822028 96.0
45.824745884 91.0
45.829669740 108.0
45.834593596 121.0
45.839517452 100.0
45.844441308 115.0
45.849365164 98.0
45.854289020 105.0
45.859212876 118.0
45.864136732 114.0
45.869060588 96.0
45.873984444 82.0
45.878908300 112.0
45.883832156 124.0
45.888756012 110.0
45.893679868 112.0
45.898603724 114.0
45.903527580 103.0
45.908451436 108.0
45.913375292 110.0
45.918299148 105.0
45.923223004 101.0
45.928146860 118.0
45.933070716 101.0
45.937994572 94.0
45.942918428 103.0
45.947842284 110.0
45.952766140 118.0
45.957689996 102.0
45.962613852 111.0
45.967537708 97.0
45.972461564 104.0
45.977385420 100.0
45.982309276 115.0
45.987233132 113.0
45.992156988 121.0
45.997080844 118.0
46.002004700 119.0
46.006928556 127.0
46.011852412 120.0
46.016776268 117.0
46.021700124 117.0
46.026623980 121.0
46.031547836 105.0
46.036471692 86.0
46.041395548 105.0
46.046319404 99.0
46.051243260 130.0
46.056167116 108.0
46.061090972 107.0
46.066014828 132.0
46.070938684 97.0
46.075862540 118.0
46.080786396 118.0
46.085710252 115.0
46.090634108 88.0
46.095557964 120.0
46.100481820 138.0
46.105405676 114.0
46.110329532 101.0
46.115253388 107.0
46.120177244 107.0
46.125101100 123.0
46.130024956 127.0
46.134948812 102.0
46.139872668 101.0
46.144796524 92.0
46.149720380 106.0
46.154644236 131.0
46.159568092 113.0
46.164491948 101.0
46.169415804 121.0
46.174339660 96.0
46.179263516 99.0
46.184187372 119.0
46.189111228 111.0
46.194035084 103.0
46.198958940 122.0
46.203882796 112.0
46.208806652 106.0
46.213730508 112.0
46.218654364 115.0
46.223578220 113.0
46.228502076 104.0
46.233425932 107.0
46.238349788 112.0
46.243273644 113.0
46.248197500 80.0
46.253121357 104.0
46.258045213 117.0
46.262969069 95.0
46.267892925 108.0
46.272816781 108.0
46.277740637 104.0
46.282664493 111.0
46.287588349 92.0
46.292512205 110.0
46.297436061 113.0
46.302359917 123.0
46.307283773 117.0
46.312207629 112.0
46.317131485 98.0
46.322055341 122.0
46.326979197 95.0
46.331903053 105.0
46.336826909 106.0
46.341750765 118.0
46.346674621 122.0
46.351598477 114.0
46.356522333 121.0
46.361446189 97.0
46.366370045 132.0
46.371293901 112.0
46.376217757 113.0
46.381141613 122.0
46.386065469 126.0
46.390989325 113.0
46.395913181 115.0
46.400837037 106.0
46.405760893 114.0
46.410684749 117.0
46.415608605 107.0
46.420532461 112.0
46.425456317 100.0
46.430380173 110.0
46.435304029 126.0
46.440227885 100.0
46.445151741 101.0
46.450075597 77.0
46.454999453 118.0
46.459923309 128.0
46.464847165 104.0
46.469771021 112.0
46.474694877 105.0
46.479618733 116.0
46.484542589 102.0
46.489466445 99.0
46.494390301 108.0
46.499314157 109.0
46.504238013 101.0
46.509161869 115.0
46.514085725 125.0
46.519009581 119.0
46.523933437 108.0
46.528857293 80.0
46.533781149 111.0
46.538705005 112.0
46.543628861 112.0
46.548552717 109.0
46.553476573 97.0
46.558400429 93.0
46.563324285 116.0
46.568248141 117.0
46.573171997 105.0
46.578095853 114.0
46.583019709 131.0
46.587943565 108.0
46.592867421 99.0
46.597791277 108.0
46.602715133 100.0
46.607638989 114.0
46.612562845 100.0
46.617486701 102.0
46.622410557 88.0
46.627334413 121.0
46.632258269 113.0
46.637182125 119.0
46.642105981 112.0
46.647029837 123.0
46.651953693 92.0
46.656877549 91.0
46.661801405 107.0
46.666725261 108.0
46.671649117 113.0
46.676572973 109.0
46.681496829 104.0
46.686420685 95.0
46.691344541 137.0
46.696268397 127.0
46.701192253 143.0
46.706116109 99.0
46.711039965 117.0
46.715963821 126.0
46.720887677 110.0
46.725811533 120.0
46.730735389 116.0
46.735659245 133.0
46.740583101 117.0
46.745506957 125.0
46.750430813 121.0
46.755354670 119.0
46.760278526 125.0
46.765202382 147.0
46.770126238 115.0
46.775050094 132.0
46.779973950 127.0
46.784897806 129.0
46.789821662 130.0
46.794745518 123.0
46.799669374 136.0
46.804593230 99.0
46.809517086 88.0
46.814440942 114.0
46.819364798 143.0
46.824288654 130.0
46.829212510 140.0
46.834136366 128.0
46.839060222 123.0
46.843984078 126.0
46.848907934 115.0
46.853831790 131.0
46.858755646 115.0
46.863679502 133.0
46.868603358 117.0
46.873527214 127.0
46.878451070 136.0
46.883374926 134.0
46.888298782 118.0
46.893222638 129.0
46.898146494 114.0
46.903070350 125.0
46.907994206 120.0
46.912918062 121.0
46.917841918 100.0
46.922765774 121.0
46.927689630 141.0
46.932613486 136.0
46.937537342 113.0
46.942461198 113.0
46.947385054 146.0
46.952308910 133.0
46.957232766 123.0
46.962156622 135.0
46.967080478 127.0
46.972004334 130.0
46.976928190 140.0
46.981852046 141.0
46.986775902 125.0
46.991699758 142.0
46.996623614 143.0
47.001547470 144.0
47.006471326 147.0
47.011395182 141.0
47.016319038 176.0
47.021242894 167.0
47.026166750 164.0
47.031090606 184.0
47.036014462 184.0
47.040938318 224.0
47.045862174 201.0
47.050786030 267.0
47.055709886 281.0
47.060633742 373.0
47.065557598 399.0
47.070481454 454.0
47.075405310 535.0
47.080329166 592.0
47.085253022 784.0
47.090176878 838.0
47.095100734 1054.0
47.100024590 1180.0
47.104948446 1336.0
47.109872302 1456.0
47.114796158 1568.0
47.119720014 1677.0
47.124643870 1636.0
47.129567726 1580.0
47.134491582 1528.0
47.139415438 1491.0
47.144339294 1330.0
47.149263150 1336.0
47.154187006 1198.0
47.159110862 1018.0
47.164034718 854.0
47.168958574 745.0
47.173882430 648.0
47.178806286 587.0
47.183730142 529.0
47.188653998 456.0
47.193577854 466.0
47.198501710 409.0
47.203425566 390.0
47.208349422 387.0
47.213273278 395.0
47.218197134 356.0
47.223120990 297.0
47.228044846 314.0
47.232968702 303.0
47.237892558 230.0
47.242816414 257.0
47.247740270 225.0
47.252664127 201.0
47.257587983 195.0
47.262511839 211.0
47.267435695 197.0
47.272359551 157.0
47.277283407 191.0
47.282207263 188.0
47.287131119 170.0
47.292054975 181.0
47.296978831 167.0
47.301902687 151.0
47.306826543 148.0
47.311750399 159.0
47.316674255 156.0
47.321598111 155.0
47.326521967 148.0
47.331445823 135.0
47.336369679 149.0
47.341293535 131.0
47.346217391 164.0
47.351141247 151.0
47.356065103 147.0
47.360988959 143.0
47.365912815 140.0
47.370836671 142.0
47.375760527 137.0
47.380684383 127.0
47.385608239 137.0
47.390532095 137.0
47.395455951 148.0
47.400379807 127.0
47.405303663 129.0
47.410227519 152.0
47.415151375 137.0
47.420075231 145.0
47.424999087 133.0
47.429922943 131.0
47.434846799 150.0
47.439770655 147.0
47.444694511 115.0
47.449618367 132.0
47.454542223 124.0
47.459466079 136.0
47.464389935 149.0
47.469313791 131.0
47.474237647 130.0
47.479161503 136.0
47.484085359 126.0
47.489009215 118.0
47.493933071 139.0
47.498856927 148.0
47.503780783 132.0
47.508704639 123.0
47.513628495 130.0
47.518552351 134.0
47.523476207 153.0
47.528400063 136.0
47.533323919 131.0
47.538247775 128.0
47.543171631 127.0
47.548095487 134.0
47.553019343 123.0
47.557943199 149.0
47.562867055 115.0
47.567790911 121.0
47.572714767 142.0
47.577638623 130.0
47.582562479 132.0
47.587486335 137.0
47.592410191 125.0
47.597334047 121.0
47.602257903 126.0
47.607181759 142.0
47.612105615 117.0
47.617029471 143.0
47.621953327 131.0
47.626877183 139.0
47.631801039 130.0
47.636724895 123.0
47.641648751 115.0
47.646572607 136.0
47.651496463 133.0
47.656420319 120.0
47.661344175 102.0
47.666268031 131.0
47.671191887 119.0
47.676115743 108.0
47.681039599 121.0
47.685963455 132.0
47.690887311 123.0
47.695811167 128.0
47.700735023 114.0
47.705658879 124.0
47.710582735 135.0
47.715506591 128.0
47.720430447 114.0
47.725354303 113.0
47.730278159 119.0
47.735202015 134.0
47.740125871 133.0
47.745049727 107.0
47.749973583 118.0
47.754897440 127.0
47.759821296 156.0
47.764745152 129.0
47.769669008 130.0
47.774592864 116.0
47.779516720 136.0
47.784440576 139.0
47.789364432 120.0
47.794288288 140.0
47.799212144 128.0
47.804136000 137.0
47.809059856 121.0
47.813983712 131.0
47.818907568 120.0
47.823831424 128.0
47.828755280 144.0
47.833679136 115.0
47.838602992 117.0
47.843526848 94.0
47.848450704 128.0
47.853374560 114.0
47.858298416 137.0
47.863222272 110.0
47.868146128 110.0
47.873069984 150.0
47.877993840 137.0
47.882917696 114.0
47.887841552 115.0
47.892765408 120.0
47.897689264 122.0
47.902613120 136.0
47.907536976 139.0
47.912460832 133.0
47.917384688 132.0
47.922308544 135.0
47.927232400 139.0
47.932156256 125.0
47.937080112 117.0
47.942003968 117.0
47.946927824 121.0
47.951851680 109.0
47.956775536 132.0
47.961699392 124.0
47.966623248 124.0
47.971547104 140.0
47.976470960 113.0
47.981394816 116.0
47.986318672 121.0
47.991242528 126.0
47.996166384 136.0
48.001090240 116.0
48.006014096 136.0
48.010937952 127.0
48.015861808 125.0
48.020785664 125.0
48.025709520 121.0
48.030633376 135.0
48.035557232 116.0
48.040481088 107.0
48.045404944 131.0
48.050328800 133.0
48.055252656 107.0
48.060176512 109.0
48.065100368 141.0
48.070024224 115.0
48.074948080 120.0
48.079871936 117.0
48.084795792 104.0
48.089719648 134.0
48.094643504 119.0
48.099567360 148.0
48.104491216 93.0
48.109415072 123.0
48.114338928 112.0
48.119262784 107.0
48.124186640 115.0
48.129110496 122.0
48.134034352 143.0
48.138958208 127.0
48.143882064 134.0
48.148805920 124.0
48.153729776 110.0
48.158653632 119.0
48.163577488 120.0
48.168501344 127.0
48.173425200 135.0
48.178349056 136.0
48.183272912 129.0
48.188196768 120.0
48.193120624 121.0
48.198044480 129.0
48.202968336 107.0
48.207892192 127.0
48.212816048 119.0
48.217739904 112.0
48.222663760 142.0
48.227587616 117.0
48.232511472 123.0
48.237435328 123.0
48.242359184 125.0
48.247283040 115.0
48.252206897 135.0
48.257130753 131.0
48.262054609 127.0
48.266978465 123.0
48.271902321 118.0
48.276826177 128.0
48.281750033 121.0
48.286673889 126.0
48.291597745 116.0
48.296521601 117.0
48.301445457 127.0
48.306369313 114.0
48.311293169 129.0
48.316217025 126.0
48.321140881 121.0
48.326064737 138.0
48.330988593 118.0
48.335912449 115.0
48.340836305 119.0
48.345760161 131.0
48.350684017 138.0
48.355607873 124.0
48.360531729 133.0
48.365455585 117.0
48.370379441 126.0
48.375303297 131.0
48.380227153 150.0
48.385151009 134.0
48.390074865 125.0
48.394998721 150.0
48.399922577 122.0
48.404846433 135.0
48.409770289 131.0
48.414694145 119.0
48.419618001 127.0
48.424541857 154.0
48.429465713 125.0
48.434389569 129.0
48.439313425 114.0
48.444237281 111.0
48.449161137 110.0
48.454084993 123.0
48.459008849 117.0
48.463932705 128.0
48.468856561 128.0
48.473780417 143.0
48.478704273 106.0
48.483628129 129.0
48.488551985 123.0
48.493475841 122.0
48.498399697 117.0
48.503323553 125.0
48.508247409 120.0
48.513171265 153.0
48.518095121 139.0
48.523018977 118.0
48.527942833 117.0
48.532866689 113.0
48.537790545 141.0
48.542714401 123.0
48.547638257 128.0
48.552562113 148.0
48.557485969 123.0
48.562409825 127.0
48.567333681 131.0
48.572257537 120.0
48.577181393 139.0
48.582105249 111.0
48.587029105 143.0
48.591952961 139.0
48.596876817 122.0
48.601800673 128.0
48.606724529 131.0
48.611648385 137.0
48.616572241 165.0
48.621496097 115.0
48.626419953 140.0
48.631343809 107.0
48.636267665 143.0
48.641191521 145.0
48.646115377 136.0
48.651039233 115.0
48.655963089 102.0
48.660886945 107.0
48.665810801 136.0
48.670734657 121.0
48.675658513 126.0
48.680582369 130.0
48.685506225 148.0
48.690430081 153.0
48.695353937 126.0
48.700277793 123.0
48.705201649 156.0
48.710125505 105.0
48.715049361 127.0
48.719973217 118.0
48.724897073 121.0
48.729820929 125.0
48.734744785 136.0
48.739668641 148.0
48.744592497 130.0
48.749516353 134.0
48.754440210 136.0
48.759364066 123.0
48.764287922 116.0
48.769211778 130.0
48.774135634 132.0
48.779059490 124.0
48.783983346 112.0
48.788907202 156.0
48.793831058 129.0
48.798754914 138.0
48.803678770 129.0
48.808602626 138.0
48.813526482 125.0
48.818450338 112.0
48.823374194 133.0
48.828298050 127.0
48.833221906 141.0
48.838145762 137.0
48.843069618 134.0
48.847993474 108.0
48.852917330 134.0
48.857841186 130.0
48.862765042 122.0
48.867688898 116.0
48.872612754 122.0
48.877536610 133.0
48.882460466 127.0
48.887384322 130.0
48.892308178 123.0
48.897232034 147.0
48.902155890 121.0
48.907079746 128.0
48.912003602 141.0
48.916927458 126.0
48.921851314 128.0
48.926775170 131.0
48.931699026 121.0
48.936622882 143.0
48.941546738 137.0
48.946470594 129.0
48.951394450 145.0
48.956318306 119.0
48.961242162 115.0
48.966166018 140.0
48.971089874 144.0
48.976013730 131.0
48.980937586 147.0
48.985861442 146.0
48.990785298 161.0
48.995709154 125.0
49.000633010 145.0
49.005556866 129.0
49.010480722 137.0
49.015404578 125.0
49.020328434 138.0
49.025252290 141.0
49.030176146 122.0
49.035100002 136.0
49.040023858 138.0
49.044947714 157.0
49.049871570 125.0
49.054795426 122.0
49.059719282 127.0
49.064643138 143.0
49.069566994 142.0
49.074490850 132.0
49.079414706 134.0
49.084338562 132.0
49.089262418 134.0
49.094186274 142.0
49.099110130 113.0
49.104033986 146.0
49.108957842 147.0
49.113881698 141.0
49.118805554 134.0
49.123729410 138.0
49.128653266 160.0
49.133577122 140.0
49.138500978 150.0
49.143424834 130.0
49.148348690 150.0
49.153272546 131.0
49.158196402 142.0
49.163120258 135.0
49.168044114 141.0
49.172967970 127.0
49.177891826 138.0
49.182815682 148.0
49.187739538 136.0
49.192663394 139.0
49.197587250 147.0
49.202511106 111.0
49.207434962 147.0
49.212358818 123.0
49.217282674 149.0
49.222206530 129.0
49.227130386 165.0
49.232054242 141.0
49.236978098 133.0
49.241901954 151.0
49.246825810 141.0
49.251749667 155.0
49.256673523 153.0
49.261597379 146.0
49.266521235 150.0
49.271445091 151.0
49.276368947 131.0
49.281292803 145.0
49.286216659 167.0
49.291140515 144.0
49.296064371 138.0
49.300988227 142.0
49.305912083 140.0
49.310835939 162.0
49.315759795 155.0
49.320683651 153.0
49.325607507 143.0
49.330531363 141.0
49.335455219 136.0
49.340379075 178.0
49.345302931 135.0
49.350226787 149.0
49.355150643 151.0
49.360074499 141.0
49.364998355 175.0
49.369922211 130.0
49.374846067 159.0
49.379769923 163.0
49.384693779 177.0
49.389617635 141.0
49.394541491 151.0
49.399465347 179.0
49.404389203 150.0
49.409313059 161.0
49.414236915 132.0
49.419160771 166.0
49.424084627 162.0
49.429008483 167.0
49.433932339 165.0
49.438856195 178.0
49.443780051 150.0
49.448703907 154.0
49.453627763 145.0
49.458551619 148.0
49.463475475 156.0
49.468399331 139.0
49.473323187 178.0
49.478247043 146.0
49.483170899 150.0
49.488094755 167.0
49.493018611 163.0
49.497942467 158.0
49.502866323 179.0
49.507790179 179.0
49.512714035 179.0
49.517637891 182.0
49.522561747 183.0
49.527485603 162.0
49.532409459 176.0
49.537333315 185.0
49.542257171 180.0
49.547181027 183.0
49.552104883 170.0
49.557028739 179.0
49.561952595 168.0
49.566876451 170.0
49.571800307 201.0
49.576724163 173.0
49.581648019 153.0
49.586571875 196.0
49.591495731 175.0
49.596419587 182.0
49.601343443 179.0
49.606267299 190.0
49.611191155 195.0
49.616115011 186.0
49.621038867 195.0
49.625962723 191.0
49.630886579 195.0
49.635810435 200.0
49.640734291 188.0
49.645658147 200.0
49.650582003 191.0
49.655505859 207.0
49.660429715 207.0
49.665353571 202.0
49.670277427 199.0
49.675201283 203.0
49.680125139 176.0
49.685048995 213.0
49.689972851 213.0
49.694896707 212.0
49.699820563 237.0
49.704744419 261.0
49.709668275 221.0
49.714592131 225.0
49.719515987 237.0
49.724439843 237.0
49.729363699 233.0
49.734287555 208.0
49.739211411 225.0
49.744135267 248.0
49.749059123 245.0
49.753982980 241.0
49.758906836 243.0
49.763830692 278.0
49.768754548 219.0
49.773678404 245.0
49.778602260 263.0
49.783526116 273.0
49.788449972 276.0
49.793373828 276.0
49.798297684 292.0
49.803221540 280.0
49.808145396 319.0
49.813069252 313.0
49.817993108 326.0
49.822916964 307.0
49.827840820 340.0
49.832764676 327.0
49.837688532 313.0
49.842612388 330.0
49.847536244 359.0
49.852460100 357.0
49.857383956 365.0
49.862307812 380.0
49.867231668 365.0
49.872155524 366.0
49.877079380 416.0
49.882003236 427.0
49.886927092 434.0
49.891850948 397.0
49.896774804 478.0
49.901698660 414.0
49.906622516 455.0
49.911546372 460.0
49.916470228 517.0
49.921394084 482.0
49.926317940 478.0
49.931241796 539.0
49.936165652 564.0
49.941089508 581.0
49.946013364 542.0
49.950937220 569.0
49.955861076 568.0
49.960784932 548.0
49.965708788 641.0
49.970632644 657.0
49.975556500 642.0
49.980480356 641.0
49.985404212 700.0
49.990328068 659.0
49.995251924 701.0
50.000175780 700.0
50.005099636 724.0
50.010023492 799.0
50.014947348 807.0
50.019871204 747.0
50.024795060 824.0
50.029718916 890.0
50.034642772 842.0
50.039566628 891.0
50.044490484 788.0
50.049414340 829.0
50.054338196 948.0
50.059262052 924.0
50.064185908 895.0
50.069109764 978.0
50.074033620 1010.0
50.078957476 972.0
50.083881332 929.0
50.088805188 1056.0
50.093729044 1062.0
50.098652900 1014.0
50.103576756 1114.0
50.108500612 1150.0
50.113424468 1164.0
50.118348324 1074.0
50.123272180 1070.0
50.128196036 1138.0
50.133119892 1208.0
50.138043748 1192.0
50.142967604 1243.0
50.147891460 1155.0
50.152815316 1210.0
50.157739172 1241.0
50.162663028 1214.0
50.167586884 1246.0
50.172510740 1279.0
50.177434596 1318.0
50.182358452 1269.0
50.187282308 1343.0
50.192206164 1327.0
50.197130020 1268.0
50.202053876 1361.0
50.206977732 1415.0
50.211901588 1344.0
50.216825444 1372.0
50.221749300 1342.0
50.226673156 1330.0
50.231597012 1295.0
50.236520868 1356.0
50.241444724 1374.0
50.246368580 1312.0
50.251292437 1277.0
50.256216293 1304.0
50.261140149 1235.0
50.266064005 1322.0
50.270987861 1342.0
50.275911717 1295.0
50.280835573 1295.0
50.285759429 1281.0
50.290683285 1258.0
50.295607141 1263.0
50.300530997 1283.0
50.305454853 1245.0
50.310378709 1234.0
50.315302565 1239.0
50.320226421 1254.0
50.325150277 1161.0
50.330074133 1206.0
50.334997989 1134.0
50.339921845 1108.0
50.344845701 1165.0
50.349769557 1114.0
50.354693413 1173.0
50.359617269 1090.0
50.364541125 1129.0
50.369464981 1123.0
50.374388837 1118.0
50.379312693 1069.0
50.384236549 1011.0
50.389160405 973.0
50.394084261 1014.0
50.399008117 944.0
50.403931973 1044.0
50.408855829 959.0
50.413779685 937.0
50.418703541 934.0
50.423627397 948.0
50.428551253 974.0
50.433475109 899.0
50.438398965 932.0
50.443322821 874.0
50.448246677 874.0
50.453170533 878.0
50.458094389 845.0
50.463018245 818.0
50.467942101 810.0
50.472865957 819.0
50.477789813 745.0
50.482713669 770.0
50.487637525 751.0
50.492561381 773.0
50.497485237 764.0
50.502409093 724.0
50.507332949 729.0
50.512256805 701.0
50.517180661 700.0
50.522104517 718.0
50.527028373 677.0
50.531952229 627.0
50.536876085 651.0
50.541799941 633.0
50.546723797 690.0
50.551647653 610.0
50.556571509 614.0
50.561495365 632.0
50.566419221 621.0
50.571343077 543.0
50.576266933 602.0
50.581190789 605.0
50.586114645 583.0
50.591038501 588.0
50.595962357 489.0
50.600886213 509.0
50.605810069 564.0
50.610733925 521.0
50.615657781 544.0
50.620581637 483.0
50.625505493 506.0
50.630429349 480.0
50.635353205 487.0
50.640277061 466.0
50.645200917 458.0
50.650124773 467.0
50.655048629 451.0
50.659972485 461.0
50.664896341 452.0
50.669820197 409.0
50.674744053 437.0
50.679667909 432.0
50.684591765 377.0
50.689515621 422.0
50.694439477 417.0
50.699363333 398.0
50.704287189 388.0
50.709211045 408.0
50.714134901 375.0
50.719058757 373.0
50.723982613 416.0
50.728906469 415.0
50.733830325 393.0
50.738754181 368.0
50.743678037 374.0
50.748601893 356.0
50.753525750 327.0
50.758449606 345.0
50.763373462 369.0
50.768297318 346.0
50.773221174 336.0
50.778145030 353.0
50.783068886 374.0
50.787992742 321.0
50.792916598 332.0
50.797840454 352.0
50.802764310 356.0
50.807688166 308.0
50.812612022 352.0
50.817535878 323.0
50.822459734 322.0
50.827383590 312.0
50.832307446 323.0
50.837231302 329.0
50.842155158 328.0
50.847079014 314.0
50.852002870 322.0
50.856926726 299.0
50.861850582 303.0
50.866774438 308.0
50.871698294 306.0
50.876622150 314.0
50.881546006 286.0
50.886469862 299.0
50.891393718 338.0
50.896317574 310.0
50.901241430 306.0
50.906165286 314.0
50.911089142 277.0
50.916012998 289.0
50.920936854 305.0
50.925860710 296.0
50.930784566 281.0
50.935708422 289.0
50.940632278 291.0
50.945556134 285.0
50.950479990 296.0
50.955403846 289.0
50.960327702 300.0
50.965251558 300.0
50.970175414 294.0
50.975099270 296.0
50.980023126 280.0
50.984946982 309.0
50.989870838 285.0
50.994794694 280.0
50.999718550 308.0
51.004642406 297.0
51.009566262 317.0
51.014490118 276.0
51.019413974 314.0
51.024337830 276.0
51.029261686 300.0
51.034185542 315.0
51.039109398 277.0
51.044033254 282.0
51.048957110 309.0
51.053880966 276.0
51.058804822 293.0
51.063728678 295.0
51.068652534 300.0
51.073576390 282.0
51.078500246 311.0
51.083424102 286.0
51.088347958 345.0
51.093271814 288.0
51.098195670 302.0
51.103119526 285.0
51.108043382 338.0
51.112967238 296.0
51.117891094 315.0
51.122814950 310.0
51.127738806 318.0
51.132662662 308.0
51.137586518 283.0
51.142510374 278.0
51.147434230 307.0
51.152358086 317.0
51.157281942 308.0
51.162205798 303.0
51.167129654 331.0
51.172053510 330.0
51.176977366 325.0
51.181901222 311.0
51.186825078 286.0
51.191748934 315.0
51.196672790 293.0
51.201596646 333.0
51.206520502 305.0
51.211444358 309.0
51.216368214 354.0
51.221292070 309.0
51.226215926 355.0
51.231139782 321.0
51.236063638 316.0
51.240987494 338.0
51.245911350 348.0
51.250835207 344.0
51.255759063 350.0
51.260682919 351.0
51.265606775 306.0
51.270530631 312.0
51.275454487 333.0
51.280378343 344.0
51.285302199 319.0
51.290226055 355.0
51.295149911 371.0
51.300073767 353.0
51.304997623 368.0
51.309921479 375.0
51.314845335 365.0
51.319769191 388.0
51.324693047 393.0
51.329616903 364.0
51.334540759 368.0
51.339464615 398.0
51.344388471 369.0
51.349312327 358.0
51.354236183 359.0
51.359160039 351.0
51.364083895 368.0
51.369007751 371.0
51.373931607 379.0
51.378855463 404.0
51.383779319 371.0
51.388703175 380.0
51.393627031 402.0
51.398550887 373.0
51.403474743 404.0
51.408398599 413.0
51.413322455 402.0
51.418246311 367.0
51.423170167 391.0
51.428094023 448.0
51.433017879 386.0
51.437941735 373.0
51.442865591 388.0
51.447789447 425.0
51.452713303 414.0
51.457637159 404.0
51.462561015 410.0
51.467484871 403.0
51.472408727 451.0
51.477332583 419.0
51.482256439 403.0
51.487180295 415.0
51.492104151 439.0
51.497028007 446.0
51.501951863 403.0
51.506875719 405.0
51.511799575 458.0
51.516723431 470.0
51.521647287 458.0
51.526571143 457.0
51.531494999 417.0
51.536418855 467.0
51.541342711 436.0
51.546266567 452.0
51.551190423 435.0
51.556114279 466.0
51.561038135 490.0
51.565961991 477.0
51.570885847 480.0
51.575809703 446.0
51.580733559 495.0
51.585657415 455.0
51.590581271 453.0
51.595505127 465.0
51.600428983 499.0
51.605352839 485.0
51.610276695 481.0
51.615200551 470.0
51.620124407 465.0
51.625048263 497.0
51.629972119 526.0
51.634895975 517.0
51.639819831 510.0
51.644743687 509.0
51.649667543 485.0
51.654591399 518.0
51.659515255 552.0
51.664439111 519.0
51.669362967 562.0
51.674286823 497.0
51.679210679 530.0
51.684134535 535.0
51.689058391 502.0
51.693982247 535.0
51.698906103 555.0
51.703829959 547.0
51.708753815 591.0
51.713677671 592.0
51.718601527 588.0
51.723525383 566.0
51.728449239 584.0
51.733373095 592.0
51.738296951 607.0
51.743220807 585.0
51.748144663 610.0
51.753068520 610.0
51.757992376 596.0
51.762916232 595.0
51.767840088 565.0
51.772763944 597.0
51.777687800 608.0
51.782611656 634.0
51.787535512 618.0
51.792459368 639.0
51.797383224 668.0
51.802307080 660.0
51.807230936 648.0
51.812154792 629.0
51.817078648 609.0
51.822002504 622.0
51.826926360 645.0
51.831850216 641.0
51.836774072 623.0
51.841697928 694.0
51.846621784 655.0
51.851545640 669.0
51.856469496 701.0
51.861393352 643.0
51.866317208 651.0
51.871241064 690.0
51.876164920 668.0
51.881088776 699.0
51.886012632 705.0
51.890936488 724.0
51.895860344 675.0
51.900784200 668.0
51.905708056 699.0
51.910631912 702.0
51.915555768 715.0
51.920479624 740.0
51.925403480 727.0
51.930327336 724.0
51.935251192 801.0
51.940175048 747.0
51.945098904 770.0
51.950022760 742.0
51.954946616 766.0
51.959870472 829.0
51.964794328 761.0
51.969718184 814.0
51.974642040 776.0
51.979565896 801.0
51.984489752 816.0
51.989413608 825.0
51.994337464 845.0
51.999261320 911.0
52.004185176 833.0
52.009109032 914.0
52.014032888 913.0
52.018956744 954.0
52.023880600 952.0
52.028804456 985.0
52.033728312 995.0
52.038652168 956.0
52.043576024 906.0
52.048499880 962.0
52.053423736 927.0
52.058347592 959.0
52.063271448 993.0
52.068195304 1041.0
52.073119160 1016.0
52.078043016 1087.0
52.082966872 1073.0
52.087890728 1134.0
52.092814584 1101.0
52.097738440 1105.0
52.102662296 1196.0
52.107586152 1197.0
52.112510008 1189.0
52.117433864 1207.0
52.122357720 1271.0
52.127281576 1284.0
52.132205432 1251.0
52.137129288 1323.0
52.142053144 1377.0
52.146977000 1436.0
52.151900856 1455.0
52.156824712 1502.0
52.161748568 1458.0
52.166672424 1566.0
52.171596280 1564.0
52.176520136 1733.0
52.181443992 1659.0
52.186367848 1810.0
52.191291704 1927.0
52.196215560 2000.0
52.201139416 2013.0
52.206063272 2324.0
52.210987128 2331.0
52.215910984 2486.0
52.220834840 2700.0
52.225758696 2910.0
52.230682552 2891.0
52.235606408 3245.0
52.240530264 3432.0
52.245454120 3597.0
52.250377977 3721.0
52.255301833 3960.0
52.260225689 4168.0
52.265149545 4296.0
52.270073401 4345.0
52.274997257 4540.0
52.279921113 4457.0
52.284844969 4654.0
52.289768825 4599.0
52.294692681 4631.0
52.299616537 4587.0
52.304540393 4510.0
52.309464249 4559.0
52.314388105 4621.0
52.319311961 4601.0
52.324235817 4522.0
52.329159673 4670.0
52.334083529 4458.0
52.339007385 4571.0
52.343931241 4674.0
52.348855097 4612.0
52.353778953 4726.0
52.358702809 5030.0
52.363626665 5081.0
52.368550521 5321.0
52.373474377 5612.0
52.378398233 5902.0
52.383322089 6272.0
52.388245945 6695.0
52.393169801 7146.0
52.398093657 7745.0
52.403017513 8503.0
52.407941369 9132.0
52.412865225 9850.0
52.417789081 11131.0
52.422712937 12382.0
52.427636793 13952.0
52.432560649 15687.0
52.437484505 18307.0
52.442408361 21231.0
52.447332217 25081.0
52.452256073 30682.0
52.457179929 38659.0
52.462103785 49778.0
52.467027641 68142.0
52.471951497 95429.0
52.476875353 134155.0
52.481799209 178975.0
52.486723065 231304.0
52.491646921 276781.0
52.496570777 319352.0
52.501494633 349464.0
52.506418489 371932.0
52.511342345 384595.0
52.516266201 388806.0
52.521190057 385059.0
52.526113913 372173.0
52.531037769 344610.0
52.535961625 306048.0
52.540885481 257640.0
52.545809337 206412.0
52.550733193 159722.0
52.555657049 118178.0
52.560580905 88922.0
52.565504761 66899.0
52.570428617 52568.0
52.575352473 43371.0
52.580276329 37117.0
52.585200185 33977.0
52.590124041 32043.0
52.595047897 33076.0
52.599971753 35770.0
52.604895609 41864.0
52.609819465 51623.0
52.614743321 65840.0
52.619667177 85048.0
52.624591033 107553.0
52.629514889 129937.0
52.634438745 151827.0
52.639362601 169996.0
52.644286457 182603.0
52.649210313 191103.0
52.654134169 195891.0
52.659058025 194529.0
52.663981881 191050.0
52.668905737 179594.0
52.673829593 165022.0
52.678753449 144141.0
52.683677305 120364.0
52.688601161 97440.0
52.693525017 74602.0
52.698448873 57431.0
52.703372729 42729.0
52.708296585 32651.0
52.713220441 25393.0
52.718144297 20373.0
52.723068153 16666.0
52.727992009 14278.0
52.732915865 12347.0
52.737839721 10788.0
52.742763577 9597.0
52.747687433 8689.0
52.752611290 7791.0
52.757535146 7402.0
52.762459002 6775.0
52.767382858 6362.0
52.772306714 5767.0
52.777230570 5512.0
52.782154426 5120.0
52.787078282 4959.0
52.792002138 4616.0
52.796925994 4342.0
52.801849850 4154.0
52.806773706 4071.0
52.811697562 3860.0
52.816621418 3706.0
52.821545274 3507.0
52.826469130 3374.0
52.831392986 3423.0
52.836316842 3301.0
52.841240698 3032.0
52.846164554 2903.0
52.851088410 2856.0
52.856012266 2833.0
52.860936122 2701.0
52.865859978 2618.0
52.870783834 2595.0
52.875707690 2537.0
52.880631546 2403.0
52.885555402 2396.0
52.890479258 2178.0
52.895403114 2149.0
52.900326970 2207.0
52.905250826 2068.0
52.910174682 2034.0
52.915098538 2058.0
52.920022394 1919.0
52.924946250 1957.0
52.929870106 1867.0
52.934793962 1787.0
52.939717818 1807.0
52.944641674 1796.0
52.949565530 1757.0
52.954489386 1708.0
52.959413242 1672.0
52.964337098 1595.0
52.969260954 1582.0
52.974184810 1452.0
52.979108666 1485.0
52.984032522 1506.0
52.988956378 1423.0
52.993880234 1431.0
52.998804090 1384.0
53.003727946 1418.0
53.008651802 1286.0
53.013575658 1302.0
53.018499514 1272.0
53.023423370 1230.0
53.028347226 1238.0
53.033271082 1188.0
53.038194938 1148.0
53.043118794 1184.0
53.048042650 1173.0
53.052966506 1142.0
53.057890362 1133.0
53.062814218 1103.0
53.067738074 1043.0
53.072661930 1044.0
53.077585786 1061.0
53.082509642 1073.0
53.087433498 972.0
53.092357354 948.0
53.097281210 978.0
53.102205066 1014.0
53.107128922 952.0
53.112052778 932.0
53.116976634 930.0
53.121900490 871.0
53.126824346 877.0
53.131748202 897.0
53.136672058 873.0
53.141595914 821.0
53.146519770 814.0
53.151443626 814.0
53.156367482 824.0
53.161291338 812.0
53.166215194 809.0
53.171139050 795.0
53.176062906 842.0
53.180986762 815.0
53.185910618 769.0
53.190834474 757.0
53.195758330 751.0
53.200682186 743.0
53.205606042 699.0
53.210529898 763.0
53.215453754 726.0
53.220377610 701.0
53.225301466 700.0
53.230225322 653.0
53.235149178 640.0
53.240073034 700.0
53.244996890 634.0
53.249920747 673.0
53.254844603 695.0
53.259768459 679.0
53.264692315 644.0
53.269616171 624.0
53.274540027 618.0
53.279463883 636.0
53.284387739 648.0
53.289311595 581.0
53.294235451 587.0
53.299159307 590.0
53.304083163 619.0
53.309007019 551.0
53.313930875 610.0
53.318854731 602.0
53.323778587 542.0
53.328702443 511.0
53.333626299 536.0
53.338550155 566.0
53.343474011 573.0
53.348397867 512.0
53.353321723 539.0
53.358245579 505.0
53.363169435 503.0
53.368093291 546.0
53.373017147 512.0
53.377941003 520.0
53.382864859 488.0
53.387788715 523.0
53.392712571 481.0
53.397636427 510.0
53.402560283 485.0
53.407484139 469.0
53.412407995 493.0
53.417331851 431.0
53.422255707 475.0
53.427179563 487.0
53.432103419 431.0
53.437027275 471.0
53.441951131 443.0
53.446874987 448.0
53.451798843 423.0
53.456722699 405.0
53.461646555 432.0
53.466570411 392.0
53.471494267 483.0
53.476418123 399.0
53.481341979 408.0
53.486265835 413.0
53.491189691 388.0
53.496113547 401.0
53.501037403 421.0
53.505961259 404.0
53.510885115 400.0
53.515808971 372.0
53.520732827 370.0
53.525656683 386.0
53.530580539 420.0
53.535504395 356.0
53.540428251 334.0
53.545352107 351.0
53.550275963 350.0
53.555199819 337.0
53.560123675 352.0
53.565047531 330.0
53.569971387 356.0
53.574895243 351.0
53.579819099 325.0
53.584742955 314.0
53.589666811 332.0
53.594590667 321.0
53.599514523 333.0
53.604438379 323.0
53.609362235 333.0
53.614286091 330.0
53.619209947 304.0
53.624133803 325.0
53.629057659 326.0
53.633981515 316.0
53.638905371 340.0
53.643829227 320.0
53.648753083 329.0
53.653676939 307.0
53.658600795 307.0
53.663524651 298.0
53.668448507 301.0
53.673372363 228.0
53.678296219 270.0
53.683220075 291.0
53.688143931 263.0
53.693067787 306.0
53.697991643 271.0
53.702915499 324.0
53.707839355 290.0
53.712763211 226.0
53.717687067 267.0
53.722610923 281.0
53.727534779 294.0
53.732458635 234.0
53.737382491 277.0
53.742306347 267.0
53.747230203 263.0
53.752154060 229.0
53.757077916 256.0
53.762001772 209.0
53.766925628 229.0
53.771849484 233.0
53.776773340 264.0
53.781697196 275.0
53.786621052 234.0
53.791544908 220.0
53.796468764 222.0
53.801392620 267.0
53.806316476 271.0
53.811240332 228.0
53.816164188 207.0
53.821088044 229.0
53.826011900 229.0
53.830935756 260.0
53.835859612 257.0
53.840783468 222.0
53.845707324 198.0
53.850631180 255.0
53.855555036 227.0
53.860478892 217.0
53.865402748 206.0
53.870326604 183.0
53.875250460 199.0
53.880174316 203.0
53.885098172 186.0
53.890022028 212.0
53.894945884 229.0
53.899869740 192.0
53.904793596 210.0
53.909717452 203.0
53.914641308 224.0
53.919565164 225.0
53.924489020 228.0
53.929412876 199.0
53.934336732 229.0
53.939260588 209.0
53.944184444 272.0
53.949108300 230.0
53.954032156 223.0
53.958956012 208.0
53.963879868 194.0
53.968803724 194.0
53.973727580 183.0
53.978651436 190.0
53.983575292 168.0
53.988499148 196.0
53.993423004 189.0
53.998346860 212.0
54.003270716 184.0
54.008194572 207.0
54.013118428 198.0
54.018042284 169.0
54.022966140 185.0
54.027889996 183.0
54.032813852 170.0
54.037737708 196.0
54.042661564 185.0
54.047585420 212.0
54.052509276 173.0
54.057433132 195.0
54.062356988 178.0
54.067280844 172.0
54.072204700 171.0
54.077128556 214.0
54.082052412 183.0
54.086976268 203.0
54.091900124 192.0
54.096823980 204.0
54.101747836 226.0
54.106671692 194.0
54.111595548 210.0
54.116519404 169.0
54.121443260 162.0
54.126367116 181.0
54.131290972 147.0
54.136214828 183.0
54.141138684 174.0
54.146062540 183.0
54.150986396 189.0
54.155910252 189.0
54.160834108 179.0
54.165757964 192.0
54.170681820 165.0
54.175605676 189.0
54.180529532 166.0
54.185453388 169.0
54.190377244 175.0
54.195301100 155.0
54.200224956 195.0
54.205148812 165.0
54.210072668 162.0
54.214996524 189.0
54.219920380 160.0
54.224844236 177.0
54.229768092 181.0
54.234691948 174.0
54.239615804 176.0
54.244539660 155.0
54.249463517 177.0
54.254387373 164.0
54.259311229 150.0
54.264235085 152.0
54.269158941 183.0
54.274082797 173.0
54.279006653 165.0
54.283930509 165.0
54.288854365 169.0
54.293778221 163.0
54.298702077 178.0
54.303625933 162.0
54.308549789 177.0
54.313473645 168.0
54.318397501 169.0
54.323321357 152.0
54.328245213 182.0
54.333169069 165.0
54.338092925 175.0
54.343016781 159.0
54.347940637 152.0
54.352864493 160.0
54.357788349 171.0
54.362712205 187.0
54.367636061 153.0
54.372559917 189.0
54.377483773 155.0
54.382407629 181.0
54.387331485 135.0
54.392255341 159.0
54.397179197 160.0
54.402103053 177.0
54.407026909 161.0
54.411950765 158.0
54.416874621 157.0
54.421798477 176.0
54.426722333 179.0
54.431646189 152.0
54.436570045 156.0
54.441493901 166.0
54.446417757 159.0
54.451341613 141.0
54.456265469 148.0
54.461189325 149.0
54.466113181 165.0
54.471037037 163.0
54.475960893 154.0
54.480884749 169.0
54.485808605 171.0
54.490732461 161.0
54.495656317 134.0
54.500580173 172.0
54.505504029 157.0
54.510427885 169.0
54.515351741 178.0
54.520275597 163.0
54.525199453 124.0
54.530123309 166.0
54.535047165 163.0
54.539971021 155.0
54.544894877 133.0
54.549818733 166.0
54.554742589 134.0
54.559666445 171.0
54.564590301 149.0
54.569514157 132.0
54.574438013 169.0
54.579361869 163.0
54.584285725 152.0
54.589209581 171.0
54.594133437 164.0
54.599057293 151.0
54.603981149 164.0
54.608905005 155.0
54.613828861 159.0
54.618752717 154.0
54.623676573 155.0
54.628600429 162.0
54.633524285 155.0
54.638448141 157.0
54.643371997 145.0
54.648295853 165.0
54.653219709 133.0
54.658143565 162.0
54.663067421 156.0
54.667991277 144.0
54.672915133 158.0
54.677838989 156.0
54.682762845 141.0
54.687686701 147.0
54.692610557 146.0
54.697534413 149.0
54.702458269 155.0
54.707382125 151.0
54.712305981 154.0
54.717229837 144.0
54.722153693 139.0
54.727077549 165.0
54.732001405 157.0
54.736925261 143.0
54.741849117 139.0
54.746772973 170.0
54.751696830 134.0
54.756620686 139.0
54.761544542 125.0
54.766468398 136.0
54.771392254 125.0
54.776316110 152.0
54.781239966 153.0
54.786163822 134.0
54.791087678 150.0
54.796011534 145.0
54.800935390 151.0
54.805859246 158.0
54.810783102 160.0
54.815706958 168.0
54.820630814 137.0
54.825554670 146.0
54.830478526 116.0
54.835402382 121.0
54.840326238 159.0
54.845250094 130.0
54.850173950 133.0
54.855097806 142.0
54.860021662 160.0
54.864945518 122.0
54.869869374 174.0
54.874793230 111.0
54.879717086 156.0
54.884640942 137.0
54.889564798 145.0
54.894488654 154.0
54.899412510 142.0
54.904336366 149.0
54.909260222 149.0
54.914184078 149.0
54.919107934 144.0
54.924031790 130.0
54.928955646 135.0
54.933879502 138.0
54.938803358 150.0
54.943727214 146.0
54.948651070 138.0
54.953574926 141.0
54.958498782 124.0
54.963422638 149.0
54.968346494 150.0
54.973270350 140.0
54.978194206 151.0
54.983118062 153.0
54.988041918 133.0
54.992965774 142.0
54.997889630 154.0
