55.001861930 139.0
55.006785786 140.0
55.011709642 143.0
55.016633498 127.0
55.021557354 128.0
55.026481210 126.0
55.031405066 131.0
55.036328922 149.0
55.041252778 123.0
55.046176634 144.0
55.051100490 134.0
55.056024346 150.0
55.060948202 140.0
55.065872058 131.0
55.070795914 140.0
55.075719770 136.0
55.080643626 132.0
55.085567482 104.0
55.090491338 162.0
55.095415194 134.0
55.100339050 150.0
55.105262906 143.0
55.110186762 136.0
55.115110618 119.0
55.120034474 142.0
55.124958330 123.0
55.129882186 141.0
55.134806042 142.0
55.139729898 123.0
55.144653754 121.0
55.149577610 129.0
55.154501466 136.0
55.159425322 129.0
55.164349178 143.0
55.169273034 132.0
55.174196890 115.0
55.179120746 129.0
55.184044602 126.0
55.188968459 135.0
55.193892315 122.0
55.198816171 112.0
55.203740027 120.0
55.208663883 134.0
55.213587739 110.0
55.218511595 129.0
55.223435451 123.0
55.228359307 121.0
55.233283163 130.0
55.238207019 132.0
55.243130875 130.0
55.248054731 128.0
55.252978587 131.0
55.257902443 127.0
55.262826299 123.0
55.267750155 113.0
55.272674011 128.0
55.277597867 144.0
55.282521723 138.0
55.287445579 132.0
55.292369435 127.0
55.297293291 112.0
55.302217147 135.0
55.307141003 114.0
55.312064859 129.0
55.316988715 123.0
55.321912571 133.0
55.326836427 142.0
55.331760283 128.0
55.336684139 137.0
55.341607995 130.0
55.346531851 113.0
55.351455707 129.0
55.356379563 122.0
55.361303419 141.0
55.366227275 138.0
55.371151131 136.0
55.376074987 132.0
55.380998843 144.0
55.385922699 130.0
55.390846555 149.0
55.395770411 151.0
55.400694267 141.0
55.405618123 134.0
55.410541979 140.0
55.415465835 132.0
55.420389691 137.0
55.425313547 133.0
55.430237403 125.0
55.435161259 141.0
55.440085115 126.0
55.445008971 141.0
55.449932827 129.0
55.454856683 150.0
55.459780539 139.0
55.464704395 138.0
55.469628251 137.0
55.474552107 153.0
55.479475963 140.0
55.484399819 122.0
55.489323675 110.0
55.494247531 138.0
55.499171387 124.0
55.504095243 108.0
55.509019099 137.0
55.513942955 138.0
55.518866811 144.0
55.523790667 125.0
55.528714523 124.0
55.533638379 160.0
55.538562235 118.0
55.543486091 136.0
55.548409947 151.0
55.553333803 124.0
55.558257660 144.0
55.563181516 146.0
55.568105372 131.0
55.573029228 143.0
55.577953084 125.0
55.582876940 130.0
55.587800796 131.0
55.592724652 121.0
55.597648508 120.0
55.602572364 124.0
55.607496220 144.0
55.612420076 135.0
55.617343932 123.0
55.622267788 159.0
55.627191644 111.0
55.632115500 120.0
55.637039356 143.0
55.641963212 147.0
55.646887068 131.0
55.651810924 128.0
55.656734780 134.0
55.661658636 137.0
55.666582492 128.0
55.671506348 138.0
55.676430204 160.0
55.681354060 148.0
55.686277916 146.0
55.691201772 133.0
55.696125628 157.0
55.701049484 133.0
55.705973340 131.0
55.710897196 119.0
55.715821052 151.0
55.720744908 126.0
55.725668764 120.0
55.730592620 126.0
55.735516476 158.0
55.740440332 121.0
55.745364188 127.0
55.750288044 141.0
55.755211900 135.0
55.760135756 131.0
55.765059612 111.0
55.769983468 142.0
55.774907324 146.0
55.779831180 149.0
55.784755036 136.0
55.789678892 116.0
55.794602748 139.0
55.799526604 146.0
55.804450460 137.0
55.809374316 133.0
55.814298172 136.0
55.819222028 129.0
55.824145884 147.0
55.829069740 127.0
55.833993596 134.0
55.838917452 127.0
55.843841308 121.0
55.848765164 140.0
55.853689020 132.0
55.858612876 126.0
55.863536732 141.0
55.868460588 138.0
55.873384444 141.0
55.878308300 126.0
55.883232156 122.0
55.888156012 130.0
55.893079868 149.0
55.898003724 149.0
55.902927580 142.0
55.907851436 127.0
55.912775292 140.0
55.917699148 136.0
55.922623004 141.0
55.927546860 118.0
55.932470717 144.0
55.937394573 110.0
55.942318429 131.0
55.947242285 135.0
55.952166141 163.0
55.957089997 134.0
55.962013853 127.0
55.966937709 143.0
55.971861565 144.0
55.976785421 126.0
55.981709277 107.0
55.986633133 141.0
55.991556989 127.0
55.996480845 122.0
56.001404701 144.0
56.006328557 137.0
56.011252413 124.0
56.016176269 97.0
56.021100125 125.0
56.026023981 145.0
56.030947837 131.0
56.035871693 138.0
56.040795549 139.0
56.045719405 131.0
56.050643261 122.0
56.055567117 132.0
56.060490973 132.0
56.065414829 134.0
56.070338685 120.0
56.075262541 144.0
56.080186397 129.0
56.085110253 152.0
56.090034109 127.0
56.094957965 139.0
56.099881821 126.0
56.104805677 122.0
56.109729533 138.0
56.114653389 143.0
56.119577245 163.0
56.124501101 144.0
56.129424957 141.0
56.134348813 127.0
56.139272669 141.0
56.144196525 112.0
56.149120381 142.0
56.154044237 148.0
56.158968093 127.0
56.163891949 137.0
56.168815805 112.0
56.173739661 137.0
56.178663517 126.0
56.183587373 126.0
56.188511229 114.0
56.193435085 140.0
56.198358941 127.0
56.203282797 141.0
56.208206653 126.0
56.213130509 134.0
56.218054365 142.0
56.222978221 134.0
56.227902077 138.0
56.232825933 135.0
56.237749789 129.0
56.242673645 138.0
56.247597501 122.0
56.252521357 137.0
56.257445213 120.0
56.262369069 131.0
56.267292925 139.0
56.272216781 130.0
56.277140637 137.0
56.282064493 135.0
56.286988349 122.0
56.291912205 119.0
56.296836061 136.0
56.301759918 131.0
56.306683774 113.0
56.311607630 143.0
56.316531486 118.0
56.321455342 135.0
56.326379198 124.0
56.331303054 120.0
56.336226910 142.0
56.341150766 139.0
56.346074622 112.0
56.350998478 152.0
56.355922334 131.0
56.360846190 132.0
56.365770046 120.0
56.370693902 131.0
56.375617758 142.0
56.380541614 130.0
56.385465470 136.0
56.390389326 129.0
56.395313182 147.0
56.400237038 137.0
56.405160894 134.0
56.410084750 152.0
56.415008606 135.0
56.419932462 116.0
56.424856318 138.0
56.429780174 135.0
56.434704030 132.0
56.439627886 144.0
56.444551742 129.0
56.449475598 123.0
56.454399454 125.0
56.459323310 142.0
56.464247166 138.0
56.469171022 142.0
56.474094878 136.0
56.479018734 134.0
56.483942590 155.0
56.488866446 140.0
56.493790302 133.0
56.498714158 138.0
56.503638014 103.0
56.508561870 130.0
56.513485726 109.0
56.518409582 158.0
56.523333438 130.0
56.528257294 143.0
56.533181150 110.0
56.538105006 158.0
56.543028862 138.0
56.547952718 136.0
56.552876574 128.0
56.557800430 131.0
56.562724286 131.0
56.567648142 151.0
56.572571998 133.0
56.577495854 140.0
56.582419710 137.0
56.587343566 142.0
56.592267422 144.0
56.597191278 132.0
56.602115134 119.0
56.607038990 126.0
56.611962846 130.0
56.616886702 135.0
56.621810558 124.0
56.626734414 132.0
56.631658270 141.0
56.636582126 134.0
56.641505982 158.0
56.646429838 155.0
56.651353694 127.0
56.656277550 140.0
56.661201406 141.0
56.666125262 121.0
56.671049119 138.0
56.675972975 122.0
56.680896831 139.0
56.685820687 120.0
56.690744543 152.0
56.695668399 146.0
56.700592255 125.0
56.705516111 138.0
56.710439967 132.0
56.715363823 123.0
56.720287679 125.0
56.725211535 147.0
56.730135391 142.0
56.735059247 142.0
56.739983103 118.0
56.744906959 157.0
56.749830815 169.0
56.754754671 132.0
56.759678527 126.0
56.764602383 146.0
56.769526239 146.0
56.774450095 149.0
56.779373951 138.0
56.784297807 154.0
56.789221663 131.0
56.794145519 143.0
56.799069375 126.0
56.803993231 147.0
56.808917087 125.0
56.813840943 104.0
56.818764799 120.0
56.823688655 140.0
56.828612511 117.0
56.833536367 134.0
56.838460223 136.0
56.843384079 112.0
56.848307935 125.0
56.853231791 145.0
56.858155647 123.0
56.863079503 123.0
56.868003359 122.0
56.872927215 121.0
56.877851071 139.0
56.882774927 142.0
56.887698783 129.0
56.892622639 102.0
56.897546495 146.0
56.902470351 120.0
56.907394207 143.0
56.912318063 145.0
56.917241919 141.0
56.922165775 146.0
56.927089631 150.0
56.932013487 135.0
56.936937343 107.0
56.941861199 144.0
56.946785055 148.0
56.951708911 120.0
56.956632767 120.0
56.961556623 113.0
56.966480479 112.0
56.971404335 135.0
56.976328191 132.0
56.981252047 122.0
56.986175903 129.0
56.991099759 134.0
56.996023615 143.0
57.000947471 143.0
57.005871327 151.0
57.010795183 140.0
57.015719039 146.0
57.020642895 149.0
57.025566751 126.0
57.030490607 137.0
57.035414463 139.0
57.040338320 140.0
57.045262176 125.0
57.050186032 126.0
57.055109888 136.0
57.060033744 124.0
57.064957600 119.0
57.069881456 123.0
57.074805312 133.0
57.079729168 134.0
57.084653024 130.0
57.089576880 131.0
57.094500736 131.0
57.099424592 135.0
57.104348448 145.0
57.109272304 165.0
57.114196160 150.0
57.119120016 165.0
57.124043872 144.0
57.128967728 132.0
57.133891584 143.0
57.138815440 130.0
57.143739296 129.0
57.148663152 138.0
57.153587008 125.0
57.158510864 140.0
57.163434720 163.0
57.168358576 142.0
57.173282432 138.0
57.178206288 147.0
57.183130144 133.0
57.188054000 157.0
57.192977856 143.0
57.197901712 144.0
57.202825568 145.0
57.207749424 138.0
57.212673280 132.0
57.217597136 132.0
57.222520992 134.0
57.227444848 122.0
57.232368704 141.0
57.237292560 133.0
57.242216416 131.0
57.247140272 123.0
57.252064128 135.0
57.256987984 137.0
57.261911840 139.0
57.266835696 137.0
57.271759552 111.0
57.276683408 141.0
57.281607264 127.0
57.286531120 135.0
57.291454976 133.0
57.296378832 127.0
57.301302688 123.0
57.306226544 134.0
57.311150400 143.0
57.316074256 144.0
57.320998112 166.0
57.325921968 126.0
57.330845824 160.0
57.335769680 141.0
57.340693536 134.0
57.345617392 138.0
57.350541248 137.0
57.355465104 156.0
57.360388960 127.0
57.365312816 126.0
57.370236672 128.0
57.375160528 135.0
57.380084384 137.0
57.385008240 141.0
57.389932096 131.0
57.394855952 151.0
57.399779808 132.0
57.404703664 143.0
57.409627521 153.0
57.414551377 124.0
57.419475233 123.0
57.424399089 144.0
57.429322945 127.0
57.434246801 134.0
57.439170657 130.0
57.444094513 138.0
57.449018369 139.0
57.453942225 138.0
57.458866081 120.0
57.463789937 120.0
57.468713793 139.0
57.473637649 141.0
57.478561505 142.0
57.483485361 146.0
57.488409217 132.0
57.493333073 135.0
57.498256929 128.0
57.503180785 129.0
57.508104641 154.0
57.513028497 155.0
57.517952353 138.0
57.522876209 149.0
57.527800065 148.0
57.532723921 133.0
57.537647777 134.0
57.542571633 135.0
57.547495489 122.0
57.552419345 145.0
57.557343201 117.0
57.562267057 134.0
57.567190913 120.0
57.572114769 136.0
57.577038625 147.0
57.581962481 135.0
57.586886337 154.0
57.591810193 139.0
57.596734049 126.0
57.601657905 126.0
57.606581761 131.0
57.611505617 133.0
57.616429473 160.0
57.621353329 151.0
57.626277185 141.0
57.631201041 138.0
57.636124897 113.0
57.641048753 128.0
57.645972609 150.0
57.650896465 141.0
57.655820321 141.0
57.660744177 142.0
57.665668033 141.0
57.670591889 123.0
57.675515745 149.0
57.680439601 138.0
57.685363457 143.0
57.690287313 131.0
57.695211169 134.0
57.700135025 141.0
57.705058881 144.0
57.709982737 147.0
57.714906593 152.0
57.719830449 134.0
57.724754305 133.0
57.729678161 125.0
57.734602017 149.0
57.739525873 152.0
57.744449729 146.0
57.749373585 134.0
57.754297441 121.0
57.759221297 129.0
57.764145153 109.0
57.769069009 128.0
57.773992865 131.0
57.778916721 131.0
57.783840578 133.0
57.788764434 147.0
57.793688290 146.0
57.798612146 127.0
57.803536002 109.0
57.808459858 135.0
57.813383714 153.0
57.818307570 130.0
57.823231426 137.0
57.828155282 137.0
57.833079138 113.0
57.838002994 146.0
57.842926850 154.0
57.847850706 132.0
57.852774562 132.0
57.857698418 123.0
57.862622274 133.0
57.867546130 146.0
57.872469986 159.0
57.877393842 136.0
57.882317698 142.0
57.887241554 124.0
57.892165410 131.0
57.897089266 141.0
57.902013122 114.0
57.906936978 151.0
57.911860834 119.0
57.916784690 139.0
57.921708546 158.0
57.926632402 118.0
57.931556258 145.0
57.936480114 130.0
57.941403970 135.0
57.946327826 143.0
57.951251682 127.0
57.956175538 136.0
57.961099394 157.0
57.966023250 132.0
57.970947106 140.0
57.975870962 120.0
57.980794818 171.0
57.985718674 151.0
57.990642530 131.0
57.995566386 158.0
58.000490242 128.0
58.005414098 138.0
58.010337954 150.0
58.015261810 135.0
58.020185666 118.0
58.025109522 137.0
58.030033378 133.0
58.034957234 125.0
58.039881090 133.0
58.044804946 132.0
58.049728802 150.0
58.054652658 128.0
58.059576514 139.0
58.064500370 132.0
58.069424226 136.0
58.074348082 128.0
58.079271938 135.0
58.084195794 156.0
58.089119650 151.0
58.094043506 147.0
58.098967362 116.0
58.103891218 135.0
58.108815074 141.0
58.113738930 133.0
58.118662786 136.0
58.123586642 123.0
58.128510498 114.0
58.133434354 132.0
58.138358210 125.0
58.143282066 127.0
58.148205922 166.0
58.153129779 136.0
58.158053635 142.0
58.162977491 134.0
58.167901347 136.0
58.172825203 137.0
58.177749059 126.0
58.182672915 139.0
58.187596771 134.0
58.192520627 137.0
58.197444483 128.0
58.202368339 125.0
58.207292195 141.0
58.212216051 112.0
58.217139907 139.0
58.222063763 138.0
58.226987619 112.0
58.231911475 124.0
58.236835331 137.0
58.241759187 130.0
58.246683043 153.0
58.251606899 129.0
58.256530755 139.0
58.261454611 153.0
58.266378467 141.0
58.271302323 125.0
58.276226179 138.0
58.281150035 131.0
58.286073891 125.0
58.290997747 129.0
58.295921603 123.0
58.300845459 165.0
58.305769315 121.0
58.310693171 143.0
58.315617027 146.0
58.320540883 124.0
58.325464739 162.0
58.330388595 142.0
58.335312451 134.0
58.340236307 141.0
58.345160163 159.0
58.350084019 150.0
58.355007875 136.0
58.359931731 132.0
58.364855587 128.0
58.369779443 139.0
58.374703299 161.0
58.379627155 126.0
58.384551011 140.0
58.389474867 125.0
58.394398723 129.0
58.399322579 115.0
58.404246435 139.0
58.409170291 115.0
58.414094147 155.0
58.419018003 126.0
58.423941859 125.0
58.428865715 137.0
58.433789571 123.0
58.438713427 120.0
58.443637283 132.0
58.448561139 136.0
58.453484995 127.0
58.458408851 137.0
58.463332707 147.0
58.468256563 151.0
58.473180419 121.0
58.478104275 129.0
58.483028131 133.0
58.487951987 131.0
58.492875843 134.0
58.497799699 135.0
58.502723555 128.0
58.507647411 134.0
58.512571267 141.0
58.517495123 144.0
58.522418980 156.0
58.527342836 148.0
58.532266692 144.0
58.537190548 142.0
58.542114404 140.0
58.547038260 128.0
58.551962116 127.0
58.556885972 135.0
58.561809828 135.0
58.566733684 159.0
58.571657540 139.0
58.576581396 122.0
58.581505252 148.0
58.586429108 127.0
58.591352964 137.0
58.596276820 139.0
58.601200676 154.0
58.606124532 137.0
58.611048388 130.0
58.615972244 139.0
58.620896100 142.0
58.625819956 146.0
58.630743812 142.0
58.635667668 148.0
58.640591524 134.0
58.645515380 112.0
58.650439236 125.0
58.655363092 114.0
58.660286948 139.0
58.665210804 149.0
58.670134660 143.0
58.675058516 140.0
58.679982372 136.0
58.684906228 149.0
58.689830084 160.0
58.694753940 145.0
58.699677796 138.0
58.704601652 134.0
58.709525508 134.0
58.714449364 119.0
58.719373220 137.0
58.724297076 139.0
58.729220932 125.0
58.734144788 171.0
58.739068644 156.0
58.743992500 133.0
58.748916356 128.0
58.753840212 125.0
58.758764068 124.0
58.763687924 132.0
58.768611780 135.0
58.773535636 133.0
58.778459492 129.0
58.783383348 120.0
58.788307204 135.0
58.793231060 129.0
58.798154916 119.0
58.803078772 148.0
58.808002628 143.0
58.812926484 147.0
58.817850340 133.0
58.822774196 140.0
58.827698052 148.0
58.832621908 145.0
58.837545764 124.0
58.842469620 134.0
58.847393476 144.0
58.852317332 145.0
58.857241188 139.0
58.862165044 116.0
58.867088900 154.0
58.872012756 134.0
58.876936612 144.0
58.881860468 152.0
58.886784324 155.0
58.891708181 134.0
58.896632037 130.0
58.901555893 130.0
58.906479749 161.0
58.911403605 142.0
58.916327461 135.0
58.921251317 144.0
58.926175173 134.0
58.931099029 119.0
58.936022885 123.0
58.940946741 141.0
58.945870597 140.0
58.950794453 141.0
58.955718309 123.0
58.960642165 120.0
58.965566021 140.0
58.970489877 124.0
58.975413733 125.0
58.980337589 130.0
58.985261445 133.0
58.990185301 161.0
58.995109157 149.0
59.000033013 126.0
59.004956869 142.0
59.009880725 138.0
59.014804581 132.0
59.019728437 134.0
59.024652293 131.0
59.029576149 134.0
59.034500005 126.0
59.039423861 116.0
59.044347717 163.0
59.049271573 126.0
59.054195429 150.0
59.059119285 129.0
59.064043141 149.0
59.068966997 138.0
59.073890853 126.0
59.078814709 150.0
59.083738565 153.0
59.088662421 147.0
59.093586277 135.0
59.098510133 128.0
59.103433989 112.0
59.108357845 127.0
59.113281701 144.0
59.118205557 120.0
59.123129413 133.0
59.128053269 137.0
59.132977125 143.0
59.137900981 135.0
59.142824837 129.0
59.147748693 147.0
59.152672549 151.0
59.157596405 141.0
59.162520261 130.0
59.167444117 125.0
59.172367973 123.0
59.177291829 120.0
59.182215685 125.0
59.187139541 134.0
59.192063397 128.0
59.196987253 144.0
59.201911109 157.0
59.206834965 166.0
59.211758821 141.0
59.216682677 143.0
59.221606533 140.0
59.226530389 139.0
59.231454245 132.0
59.236378101 130.0
59.241301957 131.0
59.246225813 117.0
59.251149669 128.0
59.256073525 124.0
59.260997382 136.0
59.265921238 135.0
59.270845094 145.0
59.275768950 136.0
59.280692806 131.0
59.285616662 140.0
59.290540518 111.0
59.295464374 132.0
59.300388230 124.0
59.305312086 137.0
59.310235942 121.0
59.315159798 118.0
59.320083654 130.0
59.325007510 133.0
59.329931366 131.0
59.334855222 128.0
59.339779078 137.0
59.344702934 127.0
59.349626790 122.0
59.354550646 139.0
59.359474502 173.0
59.364398358 147.0
59.369322214 147.0
59.374246070 136.0
59.379169926 144.0
59.384093782 132.0
59.389017638 135.0
59.393941494 142.0
59.398865350 136.0
59.403789206 152.0
59.408713062 143.0
59.413636918 143.0
59.418560774 146.0
59.423484630 137.0
59.428408486 136.0
59.433332342 133.0
59.438256198 111.0
59.443180054 140.0
59.448103910 133.0
59.453027766 140.0
59.457951622 152.0
59.462875478 146.0
59.467799334 137.0
59.472723190 123.0
59.477647046 142.0
59.482570902 129.0
59.487494758 127.0
59.492418614 142.0
59.497342470 141.0
59.502266326 143.0
59.507190182 139.0
59.512114038 142.0
59.517037894 148.0
59.521961750 138.0
59.526885606 124.0
59.531809462 144.0
59.536733318 142.0
59.541657174 145.0
59.546581030 157.0
59.551504886 153.0
59.556428742 119.0
59.561352598 141.0
59.566276454 108.0
59.571200310 153.0
59.576124166 146.0
59.581048022 153.0
59.585971878 150.0
59.590895734 137.0
59.595819590 133.0
59.600743446 156.0
59.605667302 152.0
59.610591158 158.0
59.615515014 136.0
59.620438870 113.0
59.625362726 131.0
59.630286582 121.0
59.635210439 145.0
59.640134295 143.0
59.645058151 144.0
59.649982007 134.0
59.654905863 157.0
59.659829719 152.0
59.664753575 136.0
59.669677431 137.0
59.674601287 155.0
59.679525143 141.0
59.684448999 129.0
59.689372855 134.0
59.694296711 148.0
59.699220567 142.0
59.704144423 145.0
59.709068279 168.0
59.713992135 120.0
59.718915991 139.0
59.723839847 139.0
59.728763703 145.0
59.733687559 152.0
59.738611415 125.0
59.743535271 161.0
59.748459127 135.0
59.753382983 139.0
59.758306839 143.0
59.763230695 146.0
59.768154551 139.0
59.773078407 146.0
59.778002263 137.0
59.782926119 149.0
59.787849975 152.0
59.792773831 148.0
59.797697687 148.0
59.802621543 152.0
59.807545399 134.0
59.812469255 127.0
59.817393111 133.0
59.822316967 159.0
59.827240823 133.0
59.832164679 137.0
59.837088535 152.0
59.842012391 140.0
59.846936247 138.0
59.851860103 125.0
59.856783959 141.0
59.861707815 123.0
59.866631671 141.0
59.871555527 125.0
59.876479383 135.0
59.881403239 125.0
59.886327095 133.0
59.891250951 152.0
59.896174807 143.0
59.901098663 155.0
59.906022519 139.0
59.910946375 125.0
59.915870231 153.0
59.920794087 143.0
59.925717943 153.0
59.930641799 128.0
59.935565655 115.0
59.940489511 148.0
59.945413367 137.0
59.950337223 114.0
59.955261079 137.0
59.960184935 119.0
59.965108791 114.0
59.970032647 141.0
59.974956503 158.0
59.979880359 151.0
59.984804215 133.0
59.989728071 131.0
59.994651927 122.0
59.999575783 141.0
60.004499640 141.0
60.009423496 134.0
60.014347352 164.0
60.019271208 135.0
60.024195064 138.0
60.029118920 143.0
60.034042776 136.0
60.038966632 131.0
60.043890488 152.0
60.048814344 155.0
60.053738200 149.0
60.058662056 153.0
60.063585912 147.0
60.068509768 139.0
60.073433624 145.0
60.078357480 129.0
60.083281336 145.0
60.088205192 146.0
60.093129048 138.0
60.098052904 160.0
60.102976760 117.0
60.107900616 145.0
60.112824472 161.0
60.117748328 123.0
60.122672184 122.0
60.127596040 143.0
60.132519896 135.0
60.137443752 142.0
60.142367608 138.0
60.147291464 125.0
60.152215320 158.0
60.157139176 136.0
60.162063032 130.0
60.166986888 102.0
60.171910744 139.0
60.176834600 153.0
60.181758456 152.0
60.186682312 140.0
60.191606168 144.0
60.196530024 154.0
60.201453880 146.0
60.206377736 130.0
60.211301592 142.0
60.216225448 147.0
60.221149304 143.0
60.226073160 136.0
60.230997016 151.0
60.235920872 138.0
60.240844728 151.0
60.245768584 140.0
60.250692440 145.0
60.255616296 139.0
60.260540152 142.0
60.265464008 131.0
60.270387864 138.0
60.275311720 157.0
60.280235576 151.0
60.285159432 155.0
60.290083288 185.0
60.295007144 145.0
60.299931000 159.0
60.304854856 173.0
60.309778712 156.0
60.314702568 151.0
60.319626424 130.0
60.324550280 149.0
60.329474136 182.0
60.334397992 151.0
60.339321848 162.0
60.344245704 171.0
60.349169560 143.0
60.354093416 178.0
60.359017272 141.0
60.363941128 175.0
60.368864984 130.0
60.373788841 149.0
60.378712697 164.0
60.383636553 147.0
60.388560409 137.0
60.393484265 141.0
60.398408121 139.0
60.403331977 117.0
60.408255833 154.0
60.413179689 149.0
60.418103545 147.0
60.423027401 150.0
60.427951257 151.0
60.432875113 139.0
60.437798969 168.0
60.442722825 150.0
60.447646681 148.0
60.452570537 141.0
60.457494393 137.0
60.462418249 164.0
60.467342105 169.0
60.472265961 139.0
60.477189817 125.0
60.482113673 147.0
60.487037529 164.0
60.491961385 130.0
60.496885241 135.0
60.501809097 133.0
60.506732953 168.0
60.511656809 146.0
60.516580665 169.0
60.521504521 150.0
60.526428377 132.0
60.531352233 161.0
60.536276089 154.0
60.541199945 133.0
60.546123801 142.0
60.551047657 158.0
60.555971513 152.0
60.560895369 167.0
60.565819225 146.0
60.570743081 112.0
60.575666937 149.0
60.580590793 152.0
60.585514649 144.0
60.590438505 150.0
60.595362361 141.0
60.600286217 176.0
60.605210073 173.0
60.610133929 168.0
60.615057785 166.0
60.619981641 167.0
60.624905497 177.0
60.629829353 160.0
60.634753209 152.0
60.639677065 142.0
60.644600921 163.0
60.649524777 162.0
60.654448633 171.0
60.659372489 172.0
60.664296345 182.0
60.669220201 170.0
60.674144057 186.0
60.679067913 177.0
60.683991769 191.0
60.688915625 182.0
60.693839481 194.0
60.698763337 181.0
60.703687193 183.0
60.708611049 174.0
60.713534905 197.0
60.718458761 202.0
60.723382617 220.0
60.728306473 216.0
60.733230329 203.0
60.738154185 257.0
60.743078042 228.0
60.748001898 316.0
60.752925754 264.0
60.757849610 308.0
60.762773466 329.0
60.767697322 390.0
60.772621178 420.0
60.777545034 466.0
60.782468890 471.0
60.787392746 557.0
60.792316602 631.0
60.797240458 710.0
60.802164314 803.0
60.807088170 892.0
60.812012026 1033.0
60.816935882 1210.0
60.821859738 1239.0
60.826783594 1256.0
60.831707450 1341.0
60.836631306 1349.0
60.841555162 1402.0
60.846479018 1294.0
60.851402874 1262.0
60.856326730 1293.0
60.861250586 1182.0
60.866174442 1127.0
60.871098298 998.0
60.876022154 917.0
60.880946010 897.0
60.885869866 822.0
60.890793722 772.0
60.895717578 807.0
60.900641434 774.0
60.905565290 747.0
60.910489146 699.0
60.915413002 771.0
60.920336858 741.0
60.925260714 703.0
60.930184570 694.0
60.935108426 672.0
60.940032282 556.0
60.944956138 552.0
60.949879994 477.0
60.954803850 438.0
60.959727706 333.0
60.964651562 384.0
60.969575418 321.0
60.974499274 320.0
60.979423130 305.0
60.984346986 274.0
60.989270842 270.0
60.994194698 276.0
60.999118554 232.0
61.004042410 259.0
61.008966266 186.0
61.013890122 228.0
61.018813978 201.0
61.023737834 187.0
61.028661690 196.0
61.033585546 195.0
61.038509402 198.0
61.043433258 191.0
61.048357114 201.0
61.053280970 185.0
61.058204826 187.0
61.063128682 179.0
61.068052538 187.0
61.072976394 196.0
61.077900250 190.0
61.082824106 182.0
61.087747962 190.0
61.092671818 188.0
61.097595674 149.0
61.102519530 170.0
61.107443386 181.0
61.112367243 192.0
61.117291099 174.0
61.122214955 190.0
61.127138811 180.0
61.132062667 181.0
61.136986523 184.0
61.141910379 189.0
61.146834235 168.0
61.151758091 176.0
61.156681947 185.0
61.161605803 191.0
61.166529659 160.0
61.171453515 166.0
61.176377371 175.0
61.181301227 145.0
61.186225083 193.0
61.191148939 178.0
61.196072795 162.0
61.200996651 167.0
61.205920507 169.0
61.210844363 179.0
61.215768219 172.0
61.220692075 175.0
61.225615931 169.0
61.230539787 156.0
61.235463643 159.0
61.240387499 153.0
61.245311355 181.0
61.250235211 158.0
61.255159067 162.0
61.260082923 158.0
61.265006779 164.0
61.269930635 148.0
61.274854491 148.0
61.279778347 165.0
61.284702203 183.0
61.289626059 161.0
61.294549915 148.0
61.299473771 185.0
61.304397627 161.0
61.309321483 152.0
61.314245339 169.0
61.319169195 163.0
61.324093051 164.0
61.329016907 149.0
61.333940763 155.0
61.338864619 172.0
61.343788475 174.0
61.348712331 174.0
61.353636187 171.0
61.358560043 171.0
61.363483899 178.0
61.368407755 174.0
61.373331611 159.0
61.378255467 148.0
61.383179323 197.0
61.388103179 159.0
61.393027035 181.0
61.397950891 152.0
61.402874747 179.0
61.407798603 166.0
61.412722459 170.0
61.417646315 150.0
61.422570171 151.0
61.427494027 154.0
61.432417883 154.0
61.437341739 178.0
61.442265595 152.0
61.447189451 145.0
61.452113307 173.0
61.457037163 176.0
61.461961019 164.0
61.466884875 158.0
61.471808731 140.0
61.476732587 169.0
61.481656443 148.0
61.486580300 151.0
61.491504156 152.0
61.496428012 157.0
61.501351868 160.0
61.506275724 150.0
61.511199580 163.0
61.516123436 160.0
61.521047292 158.0
61.525971148 172.0
61.530895004 161.0
61.535818860 138.0
61.540742716 142.0
61.545666572 158.0
61.550590428 151.0
61.555514284 164.0
61.560438140 176.0
61.565361996 150.0
61.570285852 153.0
61.575209708 157.0
61.580133564 170.0
61.585057420 144.0
61.589981276 137.0
61.594905132 163.0
61.599828988 164.0
61.604752844 137.0
61.609676700 145.0
61.614600556 137.0
61.619524412 153.0
61.624448268 163.0
61.629372124 180.0
61.634295980 164.0
61.639219836 147.0
61.644143692 149.0
61.649067548 184.0
61.653991404 146.0
61.658915260 154.0
61.663839116 191.0
61.668762972 150.0
61.673686828 150.0
61.678610684 157.0
61.683534540 153.0
61.688458396 148.0
61.693382252 141.0
61.698306108 173.0
61.703229964 152.0
61.708153820 162.0
61.713077676 155.0
61.718001532 153.0
61.722925388 152.0
61.727849244 131.0
61.732773100 174.0
61.737696956 139.0
61.742620812 167.0
61.747544668 188.0
61.752468524 179.0
61.757392380 159.0
61.762316236 175.0
61.767240092 153.0
61.772163948 149.0
61.777087804 144.0
61.782011660 134.0
61.786935516 130.0
61.791859372 162.0
61.796783228 159.0
61.801707084 171.0
61.806630940 140.0
61.811554796 141.0
61.816478652 141.0
61.821402508 138.0
61.826326364 147.0
61.831250220 153.0
61.836174076 131.0
61.841097932 174.0
61.846021788 159.0
61.850945644 151.0
61.855869501 140.0
61.860793357 147.0
61.865717213 167.0
61.870641069 151.0
61.875564925 148.0
61.880488781 147.0
61.885412637 164.0
61.890336493 184.0
61.895260349 175.0
61.900184205 152.0
61.905108061 151.0
61.910031917 173.0
61.914955773 163.0
61.919879629 148.0
61.924803485 149.0
61.929727341 151.0
61.934651197 174.0
61.939575053 165.0
61.944498909 159.0
61.949422765 149.0
61.954346621 150.0
61.959270477 170.0
61.964194333 142.0
61.969118189 149.0
61.974042045 169.0
61.978965901 138.0
61.983889757 152.0
61.988813613 175.0
61.993737469 166.0
61.998661325 155.0
62.003585181 136.0
62.008509037 144.0
62.013432893 143.0
62.018356749 135.0
62.023280605 184.0
62.028204461 161.0
62.033128317 145.0
62.038052173 152.0
62.042976029 146.0
62.047899885 177.0
62.052823741 172.0
62.057747597 164.0
62.062671453 162.0
62.067595309 160.0
62.072519165 145.0
62.077443021 143.0
62.082366877 154.0
62.087290733 147.0
62.092214589 152.0
62.097138445 153.0
62.102062301 162.0
62.106986157 168.0
62.111910013 152.0
62.116833869 161.0
62.121757725 145.0
62.126681581 155.0
62.131605437 151.0
62.136529293 137.0
62.141453149 162.0
62.146377005 157.0
62.151300861 144.0
62.156224717 162.0
62.161148573 162.0
62.166072429 146.0
62.170996285 145.0
62.175920141 161.0
62.180843997 159.0
62.185767853 148.0
62.190691709 149.0
62.195615565 167.0
62.200539421 149.0
62.205463277 149.0
62.210387133 149.0
62.215310989 166.0
62.220234845 155.0
62.225158702 138.0
62.230082558 144.0
62.235006414 140.0
62.239930270 162.0
62.244854126 159.0
62.249777982 153.0
62.254701838 164.0
62.259625694 151.0
62.264549550 148.0
62.269473406 168.0
62.274397262 152.0
62.279321118 143.0
62.284244974 160.0
62.289168830 154.0
62.294092686 170.0
62.299016542 147.0
62.303940398 162.0
62.308864254 162.0
62.313788110 160.0
62.318711966 150.0
62.323635822 157.0
62.328559678 134.0
62.333483534 156.0
62.338407390 162.0
62.343331246 162.0
62.348255102 158.0
62.353178958 165.0
62.358102814 179.0
62.363026670 142.0
62.367950526 136.0
62.372874382 163.0
62.377798238 139.0
62.382722094 164.0
62.387645950 173.0
62.392569806 168.0
62.397493662 141.0
62.402417518 139.0
62.407341374 134.0
62.412265230 138.0
62.417189086 145.0
62.422112942 150.0
62.427036798 138.0
62.431960654 134.0
62.436884510 145.0
62.441808366 173.0
62.446732222 132.0
62.451656078 153.0
62.456579934 172.0
62.461503790 173.0
62.466427646 175.0
62.471351502 135.0
62.476275358 138.0
62.481199214 141.0
62.486123070 177.0
62.491046926 145.0
62.495970782 173.0
62.500894638 156.0
62.505818494 138.0
62.510742350 155.0
62.515666206 153.0
62.520590062 163.0
62.525513918 152.0
62.530437774 145.0
62.535361630 166.0
62.540285486 172.0
62.545209342 155.0
62.550133198 149.0
62.555057054 160.0
62.559980910 155.0
62.564904766 146.0
62.569828622 136.0
62.574752478 142.0
62.579676334 160.0
62.584600190 152.0
62.589524046 149.0
62.594447903 150.0
62.599371759 169.0
62.604295615 182.0
62.609219471 157.0
62.614143327 159.0
62.619067183 156.0
62.623991039 160.0
62.628914895 161.0
62.633838751 171.0
62.638762607 145.0
62.643686463 164.0
62.648610319 153.0
62.653534175 154.0
62.658458031 155.0
62.663381887 183.0
62.668305743 176.0
62.673229599 163.0
62.678153455 165.0
62.683077311 168.0
62.688001167 162.0
62.692925023 137.0
62.697848879 146.0
62.702772735 150.0
62.707696591 166.0
62.712620447 170.0
62.717544303 159.0
62.722468159 158.0
62.727392015 161.0
62.732315871 167.0
62.737239727 150.0
62.742163583 172.0
62.747087439 157.0
62.752011295 169.0
62.756935151 151.0
62.761859007 176.0
62.766782863 157.0
62.771706719 165.0
62.776630575 158.0
62.781554431 154.0
62.786478287 192.0
62.791402143 157.0
62.796325999 172.0
62.801249855 188.0
62.806173711 195.0
62.811097567 148.0
62.816021423 162.0
62.820945279 153.0
62.825869135 150.0
62.830792991 147.0
62.835716847 179.0
62.840640703 182.0
62.845564559 167.0
62.850488415 158.0
62.855412271 173.0
62.860336127 160.0
62.865259983 168.0
62.870183839 163.0
62.875107695 172.0
62.880031551 154.0
62.884955407 175.0
62.889879263 168.0
62.894803119 166.0
62.899726975 173.0
62.904650831 167.0
62.909574687 170.0
62.914498543 164.0
62.919422399 154.0
62.924346255 165.0
62.929270111 174.0
62.934193967 180.0
62.939117823 182.0
62.944041679 170.0
62.948965535 190.0
62.953889391 174.0
62.958813247 187.0
62.963737104 176.0
62.968660960 162.0
62.973584816 162.0
62.978508672 171.0
62.983432528 152.0
62.988356384 180.0
62.993280240 161.0
62.998204096 146.0
63.003127952 134.0
63.008051808 179.0
63.012975664 142.0
63.017899520 162.0
63.022823376 160.0
63.027747232 155.0
63.032671088 173.0
63.037594944 173.0
63.042518800 169.0
63.047442656 135.0
63.052366512 171.0
63.057290368 180.0
63.062214224 151.0
63.067138080 169.0
63.072061936 157.0
63.076985792 158.0
63.081909648 167.0
63.086833504 161.0
63.091757360 179.0
63.096681216 159.0
63.101605072 159.0
63.106528928 153.0
63.111452784 159.0
63.116376640 170.0
63.121300496 168.0
63.126224352 161.0
63.131148208 170.0
63.136072064 168.0
63.140995920 189.0
63.145919776 174.0
63.150843632 154.0
63.155767488 164.0
63.160691344 165.0
63.165615200 149.0
63.170539056 176.0
63.175462912 166.0
63.180386768 184.0
63.185310624 169.0
63.190234480 155.0
63.195158336 174.0
63.200082192 157.0
63.205006048 182.0
63.209929904 179.0
63.214853760 174.0
63.219777616 177.0
63.224701472 169.0
63.229625328 198.0
63.234549184 178.0
63.239473040 185.0
63.244396896 196.0
63.249320752 179.0
63.254244608 185.0
63.259168464 155.0
63.264092320 189.0
63.269016176 163.0
63.273940032 170.0
63.278863888 175.0
63.283787744 177.0
63.288711600 153.0
63.293635456 204.0
63.298559312 171.0
63.303483168 170.0
63.308407024 201.0
63.313330880 159.0
63.318254736 149.0
63.323178592 179.0
63.328102448 184.0
63.333026304 181.0
63.337950161 168.0
63.342874017 176.0
63.347797873 158.0
63.352721729 198.0
63.357645585 161.0
63.362569441 170.0
63.367493297 162.0
63.372417153 167.0
63.377341009 183.0
63.382264865 176.0
63.387188721 180.0
63.392112577 162.0
63.397036433 180.0
63.401960289 179.0
63.406884145 169.0
63.411808001 192.0
63.416731857 187.0
63.421655713 190.0
63.426579569 179.0
63.431503425 179.0
63.436427281 198.0
63.441351137 160.0
63.446274993 195.0
63.451198849 180.0
63.456122705 164.0
63.461046561 182.0
63.465970417 173.0
63.470894273 171.0
63.475818129 161.0
63.480741985 144.0
63.485665841 182.0
63.490589697 191.0
63.495513553 196.0
63.500437409 187.0
63.505361265 166.0
63.510285121 186.0
63.515208977 175.0
63.520132833 201.0
63.525056689 196.0
63.529980545 199.0
63.534904401 185.0
63.539828257 167.0
63.544752113 181.0
63.549675969 158.0
63.554599825 172.0
63.559523681 183.0
63.564447537 176.0
63.569371393 180.0
63.574295249 216.0
63.579219105 181.0
63.584142961 185.0
63.589066817 192.0
63.593990673 204.0
63.598914529 183.0
63.603838385 170.0
63.608762241 188.0
63.613686097 202.0
63.618609953 205.0
63.623533809 185.0
63.628457665 190.0
63.633381521 202.0
63.638305377 188.0
63.643229233 192.0
63.648153089 221.0
63.653076945 192.0
63.658000801 191.0
63.662924657 184.0
63.667848513 180.0
63.672772369 177.0
63.677696225 196.0
63.682620081 185.0
63.687543937 208.0
63.692467793 182.0
63.697391649 198.0
63.702315505 196.0
63.707239362 173.0
63.712163218 192.0
63.717087074 192.0
63.722010930 206.0
63.726934786 169.0
63.731858642 196.0
63.736782498 203.0
63.741706354 190.0
63.746630210 201.0
63.751554066 217.0
63.756477922 194.0
63.761401778 186.0
63.766325634 207.0
63.771249490 186.0
63.776173346 193.0
63.781097202 198.0
63.786021058 189.0
63.790944914 234.0
63.795868770 218.0
63.800792626 189.0
63.805716482 204.0
63.810640338 220.0
63.815564194 179.0
63.820488050 210.0
63.825411906 209.0
63.830335762 216.0
63.835259618 221.0
63.840183474 209.0
63.845107330 208.0
63.850031186 190.0
63.854955042 197.0
63.859878898 206.0
63.864802754 199.0
63.869726610 247.0
63.874650466 191.0
63.879574322 214.0
63.884498178 230.0
63.889422034 203.0
63.894345890 215.0
63.899269746 237.0
63.904193602 226.0
63.909117458 218.0
63.914041314 214.0
63.918965170 239.0
63.923889026 189.0
63.928812882 217.0
63.933736738 234.0
63.938660594 204.0
63.943584450 212.0
63.948508306 194.0
63.953432162 197.0
63.958356018 233.0
63.963279874 237.0
63.968203730 233.0
63.973127586 234.0
63.978051442 200.0
63.982975298 211.0
63.987899154 258.0
63.992823010 209.0
63.997746866 231.0
64.002670722 230.0
64.007594578 245.0
64.012518434 227.0
64.017442290 197.0
64.022366146 189.0
64.027290002 262.0
64.032213858 241.0
64.037137714 222.0
64.042061570 246.0
64.046985426 207.0
64.051909282 231.0
64.056833138 225.0
64.061756994 222.0
64.066680850 210.0
64.071604706 220.0
64.076528563 256.0
64.081452419 232.0
64.086376275 241.0
64.091300131 276.0
64.096223987 272.0
64.101147843 276.0
64.106071699 264.0
64.110995555 266.0
64.115919411 272.0
64.120843267 260.0
64.125767123 260.0
64.130690979 243.0
64.135614835 264.0
64.140538691 271.0
64.145462547 272.0
64.150386403 272.0
64.155310259 273.0
64.160234115 255.0
64.165157971 269.0
64.170081827 255.0
64.175005683 255.0
64.179929539 256.0
64.184853395 259.0
64.189777251 279.0
64.194701107 300.0
64.199624963 302.0
64.204548819 282.0
64.209472675 297.0
64.214396531 264.0
64.219320387 265.0
64.224244243 263.0
64.229168099 275.0
64.234091955 295.0
64.239015811 293.0
64.243939667 281.0
64.248863523 306.0
64.253787379 313.0
64.258711235 296.0
64.263635091 316.0
64.268558947 285.0
64.273482803 289.0
64.278406659 341.0
64.283330515 312.0
64.288254371 320.0
64.293178227 330.0
64.298102083 375.0
64.303025939 321.0
64.307949795 309.0
64.312873651 307.0
64.317797507 287.0
64.322721363 305.0
64.327645219 325.0
64.332569075 314.0
64.337492931 289.0
64.342416787 334.0
64.347340643 319.0
64.352264499 321.0
64.357188355 322.0
64.362112211 317.0
64.367036067 332.0
64.371959923 333.0
64.376883779 324.0
64.381807635 355.0
64.386731491 338.0
64.391655347 325.0
64.396579203 345.0
64.401503059 325.0
64.406426915 359.0
64.411350771 363.0
64.416274627 334.0
64.421198483 350.0
64.426122339 351.0
64.431046195 334.0
64.435970051 372.0
64.440893907 347.0
64.445817764 356.0
64.450741620 322.0
64.455665476 353.0
64.460589332 354.0
64.465513188 368.0
64.470437044 348.0
64.475360900 312.0
64.480284756 368.0
64.485208612 335.0
64.490132468 349.0
64.495056324 356.0
64.499980180 356.0
64.504904036 367.0
64.509827892 331.0
64.514751748 361.0
64.519675604 353.0
64.524599460 348.0
64.529523316 351.0
64.534447172 371.0
64.539371028 357.0
64.544294884 367.0
64.549218740 355.0
64.554142596 371.0
64.559066452 361.0
64.563990308 353.0
64.568914164 361.0
64.573838020 388.0
64.578761876 344.0
64.583685732 341.0
64.588609588 294.0
64.593533444 352.0
64.598457300 344.0
64.603381156 347.0
64.608305012 306.0
64.613228868 356.0
64.618152724 343.0
64.623076580 359.0
64.628000436 340.0
64.632924292 368.0
64.637848148 377.0
64.642772004 324.0
64.647695860 355.0
64.652619716 377.0
64.657543572 338.0
64.662467428 330.0
64.667391284 339.0
64.672315140 348.0
64.677238996 365.0
64.682162852 340.0
64.687086708 322.0
64.692010564 376.0
64.696934420 368.0
64.701858276 339.0
64.706782132 354.0
64.711705988 340.0
64.716629844 355.0
64.721553700 369.0
64.726477556 355.0
64.731401412 348.0
64.736325268 340.0
64.741249124 325.0
64.746172980 322.0
64.751096836 350.0
64.756020692 332.0
64.760944548 335.0
64.765868404 353.0
64.770792260 315.0
64.775716116 316.0
64.780639972 319.0
64.785563828 312.0
64.790487684 308.0
64.795411540 329.0
64.800335396 315.0
64.805259252 347.0
64.810183108 327.0
64.815106965 311.0
64.820030821 345.0
64.824954677 355.0
64.829878533 302.0
64.834802389 346.0
64.839726245 342.0
64.844650101 317.0
64.849573957 297.0
64.854497813 297.0
64.859421669 317.0
64.864345525 323.0
64.869269381 329.0
64.874193237 290.0
64.879117093 329.0
64.884040949 294.0
64.888964805 314.0
64.893888661 283.0
64.898812517 301.0
64.903736373 312.0
64.908660229 289.0
64.913584085 322.0
64.918507941 280.0
64.923431797 279.0
64.928355653 308.0
64.933279509 310.0
64.938203365 292.0
64.943127221 311.0
64.948051077 326.0
64.952974933 290.0
64.957898789 323.0
64.962822645 313.0
64.967746501 305.0
64.972670357 255.0
64.977594213 316.0
64.982518069 299.0
64.987441925 285.0
64.992365781 295.0
64.997289637 261.0
65.002213493 291.0
65.007137349 264.0
65.012061205 274.0
65.016985061 234.0
65.021908917 281.0
65.026832773 273.0
65.031756629 271.0
65.036680485 240.0
65.041604341 295.0
65.046528197 281.0
65.051452053 275.0
65.056375909 275.0
65.061299765 262.0
65.066223621 259.0
65.071147477 263.0
65.076071333 241.0
65.080995189 213.0
65.085919045 280.0
65.090842901 239.0
65.095766757 268.0
65.100690613 249.0
65.105614469 269.0
65.110538325 220.0
65.115462181 236.0
65.120386037 255.0
65.125309893 228.0
65.130233749 240.0
65.135157605 261.0
65.140081461 240.0
65.145005317 219.0
65.149929173 233.0
65.154853029 246.0
65.159776885 242.0
65.164700741 238.0
65.169624597 270.0
65.174548453 231.0
65.179472309 219.0
65.184396165 285.0
65.189320022 214.0
65.194243878 229.0
65.199167734 226.0
65.204091590 211.0
65.209015446 218.0
65.213939302 220.0
65.218863158 211.0
65.223787014 216.0
65.228710870 234.0
65.233634726 217.0
65.238558582 211.0
65.243482438 204.0
65.248406294 182.0
65.253330150 212.0
65.258254006 229.0
65.263177862 216.0
65.268101718 288.0
65.273025574 207.0
65.277949430 256.0
65.282873286 219.0
65.287797142 201.0
65.292720998 199.0
65.297644854 210.0
65.302568710 205.0
65.307492566 237.0
65.312416422 221.0
65.317340278 212.0
65.322264134 228.0
65.327187990 189.0
65.332111846 230.0
65.337035702 216.0
65.341959558 215.0
65.346883414 215.0
65.351807270 223.0
65.356731126 207.0
65.361654982 206.0
65.366578838 201.0
65.371502694 189.0
65.376426550 212.0
65.381350406 214.0
65.386274262 234.0
65.391198118 206.0
65.396121974 178.0
65.401045830 201.0
65.405969686 194.0
65.410893542 206.0
65.415817398 199.0
65.420741254 186.0
65.425665110 225.0
65.430588966 219.0
65.435512822 184.0
65.440436678 221.0
65.445360534 189.0
65.450284390 202.0
65.455208246 191.0
65.460132102 181.0
65.465055958 201.0
65.469979814 190.0
65.474903670 180.0
65.479827526 216.0
65.484751382 188.0
65.489675238 187.0
65.494599094 214.0
65.499522950 198.0
65.504446806 196.0
65.509370662 202.0
65.514294518 204.0
65.519218374 259.0
65.524142230 183.0
65.529066086 199.0
65.533989942 207.0
65.538913798 222.0
65.543837654 210.0
65.548761510 212.0
65.553685366 206.0
65.558609223 187.0
65.563533079 190.0
65.568456935 208.0
65.573380791 222.0
65.578304647 198.0
65.583228503 221.0
65.588152359 199.0
65.593076215 193.0
65.598000071 205.0
65.602923927 206.0
65.607847783 195.0
65.612771639 189.0
65.617695495 221.0
65.622619351 195.0
65.627543207 206.0
65.632467063 188.0
65.637390919 222.0
65.642314775 188.0
65.647238631 204.0
65.652162487 185.0
65.657086343 222.0
65.662010199 200.0
65.666934055 206.0
65.671857911 208.0
65.676781767 206.0
65.681705623 191.0
65.686629479 230.0
65.691553335 207.0
65.696477191 218.0
65.701401047 220.0
65.706324903 201.0
65.711248759 197.0
65.716172615 194.0
65.721096471 195.0
65.726020327 213.0
65.730944183 217.0
65.735868039 181.0
65.740791895 229.0
65.745715751 189.0
65.750639607 201.0
65.755563463 203.0
65.760487319 221.0
65.765411175 216.0
65.770335031 196.0
65.775258887 218.0
65.780182743 222.0
65.785106599 238.0
65.790030455 206.0
65.794954311 206.0
65.799878167 204.0
65.804802023 219.0
65.809725879 224.0
65.814649735 209.0
65.819573591 221.0
65.824497447 202.0
65.829421303 230.0
65.834345159 204.0
65.839269015 213.0
65.844192871 224.0
65.849116727 214.0
65.854040583 207.0
65.858964439 222.0
65.863888295 189.0
65.868812151 273.0
65.873736007 217.0
65.878659863 207.0
65.883583719 210.0
65.888507575 260.0
65.893431431 238.0
65.898355287 231.0
65.903279143 206.0
65.908202999 219.0
65.913126855 226.0
65.918050711 228.0
65.922974567 232.0
65.927898424 227.0
65.932822280 266.0
65.937746136 230.0
65.942669992 210.0
65.947593848 190.0
65.952517704 200.0
65.957441560 207.0
65.962365416 205.0
65.967289272 215.0
65.972213128 259.0
65.977136984 218.0
65.982060840 222.0
65.986984696 261.0
65.991908552 278.0
65.996832408 210.0
66.001756264 219.0
66.006680120 229.0
66.011603976 197.0
66.016527832 234.0
66.021451688 267.0
66.026375544 233.0
66.031299400 262.0
66.036223256 264.0
66.041147112 229.0
66.046070968 233.0
66.050994824 222.0
66.055918680 256.0
66.060842536 258.0
66.065766392 240.0
66.070690248 213.0
66.075614104 266.0
66.080537960 234.0
66.085461816 256.0
66.090385672 191.0
66.095309528 236.0
66.100233384 280.0
66.105157240 235.0
66.110081096 284.0
66.115004952 288.0
66.119928808 277.0
66.124852664 225.0
66.129776520 261.0
66.134700376 285.0
66.139624232 275.0
66.144548088 268.0
66.149471944 296.0
66.154395800 223.0
66.159319656 212.0
66.164243512 271.0
66.169167368 274.0
66.174091224 292.0
66.179015080 236.0
66.183938936 217.0
66.188862792 270.0
66.193786648 273.0
66.198710504 274.0
66.203634360 268.0
66.208558216 293.0
66.213482072 285.0
66.218405928 230.0
66.223329784 269.0
66.228253640 268.0
66.233177496 257.0
66.238101352 282.0
66.243025208 271.0
66.247949064 287.0
66.252872920 226.0
66.257796776 285.0
66.262720632 289.0
66.267644488 282.0
66.272568344 296.0
66.277492200 256.0
66.282416056 280.0
66.287339912 301.0
66.292263768 278.0
66.297187625 294.0
66.302111481 330.0
66.307035337 288.0
66.311959193 309.0
66.316883049 300.0
66.321806905 267.0
66.326730761 317.0
66.331654617 308.0
66.336578473 259.0
66.341502329 296.0
66.346426185 268.0
66.351350041 287.0
66.356273897 307.0
66.361197753 270.0
66.366121609 279.0
66.371045465 297.0
66.375969321 300.0
66.380893177 322.0
66.385817033 291.0
66.390740889 307.0
66.395664745 300.0
66.400588601 290.0
66.405512457 300.0
66.410436313 300.0
66.415360169 301.0
66.420284025 329.0
66.425207881 285.0
66.430131737 329.0
66.435055593 305.0
66.439979449 296.0
66.444903305 288.0
66.449827161 318.0
66.454751017 321.0
66.459674873 328.0
66.464598729 298.0
66.469522585 317.0
66.474446441 310.0
66.479370297 322.0
66.484294153 297.0
66.489218009 303.0
66.494141865 364.0
66.499065721 310.0
66.503989577 313.0
66.508913433 296.0
66.513837289 334.0
66.518761145 291.0
66.523685001 334.0
66.528608857 346.0
66.533532713 304.0
66.538456569 318.0
66.543380425 326.0
66.548304281 296.0
66.553228137 331.0
66.558151993 345.0
66.563075849 326.0
66.567999705 326.0
66.572923561 325.0
66.577847417 336.0
66.582771273 331.0
66.587695129 339.0
66.592618985 332.0
66.597542841 410.0
66.602466697 376.0
66.607390553 386.0
66.612314409 341.0
66.617238265 380.0
66.622162121 356.0
66.627085977 340.0
66.632009833 348.0
66.636933689 409.0
66.641857545 363.0
66.646781401 361.0
66.651705257 322.0
66.656629113 369.0
66.661552969 372.0
66.666476826 336.0
66.671400682 346.0
66.676324538 355.0
66.681248394 394.0
66.686172250 360.0
66.691096106 389.0
66.696019962 386.0
66.700943818 390.0
66.705867674 358.0
66.710791530 365.0
66.715715386 371.0
66.720639242 375.0
66.725563098 354.0
66.730486954 354.0
66.735410810 342.0
66.740334666 370.0
66.745258522 403.0
66.750182378 366.0
66.755106234 394.0
66.760030090 379.0
66.764953946 376.0
66.769877802 398.0
66.774801658 391.0
66.779725514 399.0
66.784649370 362.0
66.789573226 383.0
66.794497082 404.0
66.799420938 357.0
66.804344794 426.0
66.809268650 380.0
66.814192506 386.0
66.819116362 445.0
66.824040218 411.0
66.828964074 412.0
66.833887930 430.0
66.838811786 373.0
66.843735642 371.0
66.848659498 425.0
66.853583354 430.0
66.858507210 384.0
66.863431066 411.0
66.868354922 408.0
66.873278778 436.0
66.878202634 441.0
66.883126490 422.0
66.888050346 473.0
66.892974202 433.0
66.897898058 470.0
66.902821914 463.0
66.907745770 425.0
66.912669626 433.0
66.917593482 450.0
66.922517338 417.0
66.927441194 422.0
66.932365050 423.0
66.937288906 462.0
66.942212762 446.0
66.947136618 424.0
66.952060474 469.0
66.956984330 476.0
66.961908186 447.0
66.966832042 418.0
66.971755898 468.0
66.976679754 468.0
66.981603610 458.0
66.986527466 497.0
66.991451322 442.0
66.996375178 459.0
67.001299034 470.0
67.006222890 481.0
67.011146746 473.0
67.016070602 505.0
67.020994458 456.0
67.025918314 444.0
67.030842170 493.0
67.035766026 471.0
67.040689883 482.0
67.045613739 465.0
67.050537595 459.0
67.055461451 493.0
67.060385307 531.0
67.065309163 507.0
67.070233019 504.0
67.075156875 512.0
67.080080731 453.0
67.085004587 505.0
67.089928443 493.0
67.094852299 517.0
67.099776155 502.0
67.104700011 508.0
67.109623867 495.0
67.114547723 466.0
67.119471579 468.0
67.124395435 496.0
67.129319291 495.0
67.134243147 484.0
67.139167003 509.0
67.144090859 551.0
67.149014715 490.0
67.153938571 515.0
67.158862427 552.0
67.163786283 524.0
67.168710139 507.0
67.173633995 506.0
67.178557851 532.0
67.183481707 537.0
67.188405563 563.0
67.193329419 539.0
67.198253275 593.0
67.203177131 495.0
67.208100987 532.0
67.213024843 526.0
67.217948699 559.0
67.222872555 531.0
67.227796411 585.0
67.232720267 535.0
67.237644123 559.0
67.242567979 541.0
67.247491835 616.0
67.252415691 540.0
67.257339547 588.0
67.262263403 601.0
67.267187259 580.0
67.272111115 613.0
67.277034971 583.0
67.281958827 599.0
67.286882683 615.0
67.291806539 620.0
67.296730395 578.0
67.301654251 607.0
67.306578107 587.0
67.311501963 590.0
67.316425819 625.0
67.321349675 649.0
67.326273531 585.0
67.331197387 582.0
67.336121243 621.0
67.341045099 596.0
67.345968955 671.0
67.350892811 649.0
67.355816667 637.0
67.360740523 641.0
67.365664379 654.0
67.370588235 649.0
67.375512091 613.0
67.380435947 608.0
67.385359803 710.0
67.390283659 618.0
67.395207515 675.0
67.400131371 722.0
67.405055227 696.0
67.409979084 667.0
67.414902940 665.0
67.419826796 692.0
67.424750652 736.0
67.429674508 692.0
67.434598364 744.0
67.439522220 730.0
67.444446076 726.0
67.449369932 758.0
67.454293788 763.0
67.459217644 764.0
67.464141500 742.0
67.469065356 769.0
67.473989212 729.0
67.478913068 750.0
67.483836924 793.0
67.488760780 715.0
67.493684636 757.0
67.498608492 823.0
67.503532348 765.0
67.508456204 852.0
67.513380060 839.0
67.518303916 798.0
67.523227772 784.0
67.528151628 824.0
67.533075484 870.0
67.537999340 852.0
67.542923196 885.0
67.547847052 862.0
67.552770908 839.0
67.557694764 925.0
67.562618620 913.0
67.567542476 918.0
67.572466332 939.0
67.577390188 981.0
67.582314044 947.0
67.587237900 914.0
67.592161756 932.0
67.597085612 1006.0
67.602009468 922.0
67.606933324 950.0
67.611857180 977.0
67.616781036 1006.0
67.621704892 974.0
67.626628748 999.0
67.631552604 962.0
67.636476460 1072.0
67.641400316 1103.0
67.646324172 1053.0
67.651248028 1059.0
67.656171884 1146.0
67.661095740 1176.0
67.666019596 1141.0
67.670943452 1231.0
67.675867308 1203.0
67.680791164 1226.0
67.685715020 1196.0
67.690638876 1280.0
67.695562732 1293.0
67.700486588 1340.0
67.705410444 1360.0
67.710334300 1411.0
67.715258156 1489.0
67.720182012 1549.0
67.725105868 1529.0
67.730029724 1671.0
67.734953580 1721.0
67.739877436 1747.0
67.744801292 1839.0
67.749725148 1844.0
67.754649004 1982.0
67.759572860 2125.0
67.764496716 2238.0
67.769420572 2250.0
67.774344428 2422.0
67.779268285 2557.0
67.784192141 2575.0
67.789115997 2869.0
67.794039853 2806.0
67.798963709 2941.0
67.803887565 3109.0
67.808811421 3077.0
67.813735277 3176.0
67.818659133 3330.0
67.823582989 3413.0
67.828506845 3381.0
67.833430701 3566.0
67.838354557 3593.0
67.843278413 3560.0
67.848202269 3634.0
67.853126125 3735.0
67.858049981 3716.0
67.862973837 3553.0
67.867897693 3662.0
67.872821549 3612.0
67.877745405 3541.0
67.882669261 3771.0
67.887593117 3605.0
67.892516973 3639.0
67.897440829 3693.0
67.902364685 3628.0
67.907288541 3656.0
67.912212397 3616.0
67.917136253 3619.0
67.922060109 3688.0
67.926983965 3791.0
67.931907821 3823.0
67.936831677 3984.0
67.941755533 4024.0
67.946679389 4097.0
67.951603245 4313.0
67.956527101 4395.0
67.961450957 4526.0
67.966374813 4767.0
67.971298669 5187.0
67.976222525 5211.0
67.981146381 5463.0
67.986070237 5822.0
67.990994093 6170.0
67.995917949 6437.0
68.000841805 6898.0
68.005765661 7158.0
68.010689517 7723.0
68.015613373 8346.0
68.020537229 8791.0
68.025461085 9424.0
68.030384941 10009.0
68.035308797 10856.0
68.040232653 11614.0
68.045156509 12115.0
68.050080365 13146.0
68.055004221 14368.0
68.059928077 15357.0
68.064851933 16656.0
68.069775789 17812.0
68.074699645 19626.0
68.079623501 21681.0
68.084547357 24255.0
68.089471213 27484.0
68.094395069 31251.0
68.099318925 36083.0
68.104242781 41701.0
68.109166637 52113.0
68.114090493 62860.0
68.119014349 84867.0
68.123938205 109429.0
68.128862061 152992.0
68.133785917 196525.0
68.138709773 239261.0
68.143633629 275690.0
68.148557486 297655.0
68.153481342 317023.0
68.158405198 325028.0
68.163329054 332822.0
68.168252910 331543.0
68.173176766 325697.0
68.178100622 308017.0
68.183024478 280210.0
68.187948334 238744.0
68.192872190 188902.0
68.197796046 150811.0
68.202719902 113951.0
68.207643758 92118.0
68.212567614 73756.0
68.217491470 60171.0
68.222415326 49237.0
68.227339182 40919.0
68.232263038 36121.0
68.237186894 30683.0
68.242110750 28258.0
68.247034606 24716.0
68.251958462 23192.0
68.256882318 21825.0
68.261806174 21197.0
68.266730030 20690.0
68.271653886 20543.0
68.276577742 21229.0
68.281501598 22066.0
68.286425454 23868.0
68.291349310 25560.0
68.296273166 28807.0
68.301197022 33613.0
68.306120878 39369.0
68.311044734 49879.0
68.315968590 59652.0
68.320892446 80933.0
68.325816302 93270.0
68.330740158 119833.0
68.335664014 128939.0
68.340587870 148993.0
68.345511726 152707.0
68.350435582 163918.0
68.355359438 162825.0
68.360283294 164086.0
68.365207150 159350.0
68.370131006 150898.0
68.375054862 139644.0
68.379978718 117972.0
68.384902574 104589.0
68.389826430 78734.0
68.394750286 69065.0
68.399674142 49499.0
68.404597998 44363.0
68.409521854 32154.0
68.414445710 29473.0
68.419369566 22486.0
68.424293422 20370.0
68.429217278 16180.0
68.434141134 15305.0
68.439064990 12349.0
68.443988846 11970.0
68.448912702 10198.0
68.453836558 9667.0
68.458760414 8586.0
68.463684270 8146.0
68.468608126 7623.0
68.473531982 7004.0
68.478455838 6593.0
68.483379694 6070.0
68.488303550 5955.0
68.493227406 5688.0
68.498151262 5410.0
68.503075118 5086.0
68.507998974 5022.0
68.512922830 4732.0
68.517846687 4704.0
68.522770543 4485.0
68.527694399 4237.0
68.532618255 4096.0
68.537542111 4036.0
68.542465967 4042.0
68.547389823 3764.0
68.552313679 3599.0
68.557237535 3397.0
68.562161391 3512.0
68.567085247 3311.0
68.572009103 3265.0
68.576932959 3062.0
68.581856815 3079.0
68.586780671 2951.0
68.591704527 2884.0
68.596628383 2765.0
68.601552239 2738.0
68.606476095 2709.0
68.611399951 2584.0
68.616323807 2562.0
68.621247663 2487.0
68.626171519 2474.0
68.631095375 2294.0
68.636019231 2322.0
68.640943087 2190.0
68.645866943 2260.0
68.650790799 2158.0
68.655714655 2131.0
68.660638511 2106.0
68.665562367 2086.0
68.670486223 1978.0
68.675410079 1959.0
68.680333935 1949.0
68.685257791 1906.0
68.690181647 1888.0
68.695105503 1866.0
68.700029359 1863.0
68.704953215 1774.0
68.709877071 1750.0
68.714800927 1714.0
68.719724783 1687.0
68.724648639 1679.0
68.729572495 1568.0
68.734496351 1622.0
68.739420207 1485.0
68.744344063 1582.0
68.749267919 1611.0
68.754191775 1489.0
68.759115631 1511.0
68.764039487 1493.0
68.768963343 1404.0
68.773887199 1449.0
68.778811055 1410.0
68.783734911 1327.0
68.788658767 1347.0
68.793582623 1327.0
68.798506479 1272.0
68.803430335 1250.0
68.808354191 1287.0
68.813278047 1229.0
68.818201903 1191.0
68.823125759 1286.0
68.828049615 1195.0
68.832973471 1176.0
68.837897327 1168.0
68.842821183 1100.0
68.847745039 1114.0
68.852668895 1118.0
68.857592751 1081.0
68.862516607 1035.0
68.867440463 1125.0
68.872364319 1032.0
68.877288175 1019.0
68.882212031 1020.0
68.887135887 1005.0
68.892059744 975.0
68.896983600 970.0
68.901907456 990.0
68.906831312 949.0
68.911755168 942.0
68.916679024 952.0
68.921602880 946.0
68.926526736 901.0
68.931450592 892.0
68.936374448 905.0
68.941298304 892.0
68.946222160 939.0
68.951146016 886.0
68.956069872 876.0
68.960993728 892.0
68.965917584 881.0
68.970841440 858.0
68.975765296 784.0
68.980689152 828.0
68.985613008 833.0
68.990536864 810.0
68.995460720 833.0
69.000384576 835.0
69.005308432 791.0
69.010232288 777.0
69.015156144 755.0
69.020080000 773.0
69.025003856 727.0
69.029927712 777.0
69.034851568 714.0
69.039775424 735.0
69.044699280 754.0
69.049623136 728.0
69.054546992 728.0
69.059470848 682.0
69.064394704 714.0
69.069318560 690.0
69.074242416 713.0
69.079166272 752.0
69.084090128 711.0
69.089013984 705.0
69.093937840 717.0
69.098861696 672.0
69.103785552 698.0
69.108709408 654.0
69.113633264 654.0
69.118557120 658.0
69.123480976 652.0
69.128404832 630.0
69.133328688 643.0
69.138252544 618.0
69.143176400 602.0
69.148100256 599.0
69.153024112 594.0
69.157947968 623.0
69.162871824 614.0
69.167795680 577.0
69.172719536 596.0
69.177643392 555.0
69.182567248 581.0
69.187491104 549.0
69.192414960 585.0
69.197338816 563.0
69.202262672 522.0
69.207186528 529.0
69.212110384 518.0
69.217034240 522.0
69.221958096 555.0
69.226881952 548.0
69.231805808 519.0
69.236729664 555.0
69.241653520 513.0
69.246577376 527.0
69.251501232 510.0
69.256425088 520.0
69.261348945 502.0
69.266272801 481.0
69.271196657 483.0
69.276120513 488.0
69.281044369 468.0
69.285968225 472.0
69.290892081 494.0
69.295815937 472.0
69.300739793 425.0
69.305663649 482.0
69.310587505 500.0
69.315511361 468.0
69.320435217 458.0
69.325359073 396.0
69.330282929 476.0
69.335206785 446.0
69.340130641 442.0
69.345054497 460.0
69.349978353 518.0
69.354902209 462.0
69.359826065 457.0
69.364749921 410.0
69.369673777 433.0
69.374597633 406.0
69.379521489 408.0
69.384445345 400.0
69.389369201 416.0
69.394293057 410.0
69.399216913 418.0
69.404140769 428.0
69.409064625 414.0
69.413988481 393.0
69.418912337 423.0
69.423836193 368.0
69.428760049 392.0
69.433683905 377.0
69.438607761 402.0
69.443531617 395.0
69.448455473 366.0
69.453379329 367.0
69.458303185 390.0
69.463227041 357.0
69.468150897 405.0
69.473074753 361.0
69.477998609 345.0
69.482922465 373.0
69.487846321 358.0
69.492770177 339.0
69.497694033 358.0
69.502617889 381.0
69.507541745 321.0
69.512465601 364.0
69.517389457 357.0
69.522313313 360.0
69.527237169 332.0
69.532161025 344.0
69.537084881 357.0
69.542008737 319.0
69.546932593 324.0
69.551856449 317.0
69.556780305 344.0
69.561704161 332.0
69.566628017 300.0
69.571551873 336.0
69.576475729 339.0
69.581399585 325.0
69.586323441 366.0
69.591247297 294.0
69.596171153 325.0
69.601095009 317.0
69.606018865 326.0
69.610942721 296.0
69.615866577 361.0
69.620790433 285.0
69.625714289 311.0
69.630638146 330.0
69.635562002 287.0
69.640485858 306.0
69.645409714 312.0
69.650333570 297.0
69.655257426 325.0
69.660181282 297.0
69.665105138 273.0
69.670028994 302.0
69.674952850 307.0
69.679876706 304.0
69.684800562 320.0
69.689724418 317.0
69.694648274 292.0
69.699572130 269.0
69.704495986 289.0
69.709419842 318.0
69.714343698 275.0
69.719267554 284.0
69.724191410 292.0
69.729115266 322.0
69.734039122 306.0
69.738962978 294.0
69.743886834 287.0
69.748810690 303.0
69.753734546 299.0
69.758658402 228.0
69.763582258 288.0
69.768506114 262.0
69.773429970 291.0
69.778353826 273.0
69.783277682 301.0
69.788201538 303.0
69.793125394 273.0
69.798049250 279.0
69.802973106 271.0
69.807896962 256.0
69.812820818 266.0
69.817744674 220.0
69.822668530 268.0
69.827592386 306.0
69.832516242 299.0
69.837440098 265.0
69.842363954 266.0
69.847287810 214.0
69.852211666 281.0
69.857135522 264.0
69.862059378 233.0
69.866983234 258.0
69.871907090 264.0
69.876830946 216.0
69.881754802 264.0
69.886678658 235.0
69.891602514 234.0
69.896526370 260.0
69.901450226 271.0
69.906374082 216.0
69.911297938 241.0
69.916221794 261.0
69.921145650 230.0
69.926069506 228.0
69.930993362 225.0
69.935917218 258.0
69.940841074 211.0
69.945764930 234.0
69.950688786 223.0
69.955612642 238.0
69.960536498 305.0
69.965460354 234.0
69.970384210 239.0
69.975308066 195.0
69.980231922 212.0
69.985155778 228.0
69.990079634 226.0
69.995003490 236.0
69.999927347 262.0
70.004851203 211.0
70.009775059 219.0
70.014698915 230.0
70.019622771 238.0
70.024546627 198.0
70.029470483 237.0
70.034394339 229.0
70.039318195 214.0
70.044242051 230.0
70.049165907 234.0
70.054089763 237.0
70.059013619 257.0
70.063937475 218.0
70.068861331 237.0
70.073785187 229.0
70.078709043 201.0
70.083632899 202.0
70.088556755 221.0
70.093480611 213.0
70.098404467 203.0
70.103328323 234.0
70.108252179 211.0
70.113176035 229.0
70.118099891 229.0
70.123023747 195.0
70.127947603 215.0
70.132871459 227.0
70.137795315 201.0
70.142719171 218.0
70.147643027 224.0
70.152566883 226.0
70.157490739 183.0
70.162414595 188.0
70.167338451 226.0
70.172262307 219.0
70.177186163 222.0
70.182110019 218.0
70.187033875 215.0
70.191957731 206.0
70.196881587 180.0
70.201805443 201.0
70.206729299 209.0
70.211653155 217.0
70.216577011 221.0
70.221500867 199.0
70.226424723 211.0
70.231348579 201.0
70.236272435 211.0
70.241196291 204.0
70.246120147 208.0
70.251044003 204.0
70.255967859 197.0
70.260891715 213.0
70.265815571 204.0
70.270739427 213.0
70.275663283 205.0
70.280587139 196.0
70.285510995 234.0
70.290434851 197.0
70.295358707 213.0
70.300282563 220.0
70.305206419 200.0
70.310130275 192.0
70.315054131 220.0
70.319977987 203.0
70.324901843 211.0
70.329825699 213.0
70.334749555 205.0
70.339673411 204.0
70.344597267 215.0
70.349521123 201.0
70.354444979 193.0
70.359368835 197.0
70.364292691 177.0
70.369216548 177.0
70.374140404 180.0
70.379064260 227.0
70.383988116 203.0
70.388911972 185.0
70.393835828 195.0
70.398759684 223.0
70.403683540 199.0
70.408607396 194.0
70.413531252 215.0
70.418455108 212.0
70.423378964 211.0
70.428302820 177.0
70.433226676 172.0
70.438150532 195.0
70.443074388 181.0
70.447998244 197.0
70.452922100 200.0
70.457845956 201.0
70.462769812 209.0
70.467693668 176.0
70.472617524 214.0
70.477541380 216.0
70.482465236 204.0
70.487389092 188.0
70.492312948 194.0
70.497236804 198.0
70.502160660 176.0
70.507084516 194.0
70.512008372 196.0
70.516932228 183.0
70.521856084 167.0
70.526779940 210.0
70.531703796 201.0
70.536627652 189.0
70.541551508 177.0
70.546475364 218.0
70.551399220 173.0
70.556323076 190.0
70.561246932 197.0
70.566170788 205.0
70.571094644 189.0
70.576018500 175.0
70.580942356 182.0
70.585866212 163.0
70.590790068 180.0
70.595713924 192.0
70.600637780 192.0
70.605561636 177.0
70.610485492 187.0
70.615409348 188.0
70.620333204 164.0
70.625257060 187.0
70.630180916 181.0
70.635104772 202.0
70.640028628 189.0
70.644952484 175.0
70.649876340 187.0
70.654800196 197.0
70.659724052 173.0
70.664647908 164.0
70.669571764 179.0
70.674495620 166.0
70.679419476 192.0
70.684343332 163.0
70.689267188 184.0
70.694191044 172.0
70.699114900 174.0
70.704038756 178.0
70.708962612 190.0
70.713886468 188.0
70.718810324 191.0
70.723734180 173.0
70.728658036 208.0
70.733581892 163.0
70.738505748 174.0
70.743429605 188.0
70.748353461 187.0
70.753277317 187.0
70.758201173 183.0
70.763125029 184.0
70.768048885 181.0
70.772972741 189.0
70.777896597 180.0
70.782820453 173.0
70.787744309 181.0
70.792668165 195.0
70.797592021 176.0
70.802515877 196.0
70.807439733 183.0
70.812363589 192.0
70.817287445 171.0
70.822211301 177.0
70.827135157 173.0
70.832059013 179.0
70.836982869 182.0
70.841906725 166.0
70.846830581 172.0
70.851754437 201.0
70.856678293 177.0
70.861602149 186.0
70.866526005 160.0
70.871449861 178.0
70.876373717 171.0
70.881297573 158.0
70.886221429 182.0
70.891145285 173.0
70.896069141 166.0
70.900992997 163.0
70.905916853 201.0
70.910840709 178.0
70.915764565 169.0
70.920688421 179.0
70.925612277 185.0
70.930536133 175.0
70.935459989 185.0
70.940383845 161.0
70.945307701 173.0
70.950231557 192.0
70.955155413 177.0
70.960079269 196.0
70.965003125 171.0
70.969926981 189.0
70.974850837 163.0
70.979774693 168.0
70.984698549 183.0
70.989622405 191.0
70.994546261 159.0
70.999470117 190.0
71.004393973 184.0
71.009317829 143.0
71.014241685 179.0
71.019165541 183.0
71.024089397 190.0
71.029013253 187.0
71.033937109 191.0
71.038860965 175.0
71.043784821 167.0
71.048708677 210.0
71.053632533 186.0
71.058556389 170.0
71.063480245 168.0
71.068404101 167.0
71.073327957 183.0
71.078251813 179.0
71.083175669 168.0
71.088099525 175.0
71.093023381 181.0
71.097947237 179.0
71.102871093 146.0
71.107794949 165.0
71.112718806 179.0
71.117642662 179.0
71.122566518 153.0
71.127490374 177.0
71.132414230 173.0
71.137338086 151.0
71.142261942 169.0
71.147185798 158.0
71.152109654 159.0
71.157033510 154.0
71.161957366 145.0
71.166881222 181.0
71.171805078 188.0
71.176728934 162.0
71.181652790 174.0
71.186576646 167.0
71.191500502 165.0
71.196424358 164.0
71.201348214 174.0
71.206272070 176.0
71.211195926 168.0
71.216119782 161.0
71.221043638 152.0
71.225967494 197.0
71.230891350 147.0
71.235815206 169.0
71.240739062 183.0
71.245662918 181.0
71.250586774 173.0
71.255510630 152.0
71.260434486 150.0
71.265358342 199.0
71.270282198 174.0
71.275206054 169.0
71.280129910 166.0
71.285053766 166.0
71.289977622 169.0
71.294901478 167.0
71.299825334 175.0
71.304749190 164.0
71.309673046 166.0
71.314596902 169.0
71.319520758 161.0
71.324444614 159.0
71.329368470 151.0
71.334292326 169.0
71.339216182 155.0
71.344140038 174.0
71.349063894 168.0
71.353987750 152.0
71.358911606 180.0
71.363835462 151.0
71.368759318 170.0
71.373683174 164.0
71.378607030 148.0
71.383530886 153.0
71.388454742 158.0
71.393378598 154.0
71.398302454 161.0
71.403226310 160.0
71.408150166 166.0
71.413074022 145.0
71.417997878 158.0
71.422921734 164.0
71.427845590 177.0
71.432769446 164.0
71.437693302 169.0
71.442617158 158.0
71.447541014 159.0
71.452464870 175.0
71.457388726 161.0
71.462312582 147.0
71.467236438 163.0
71.472160294 171.0
71.477084150 176.0
71.482008007 138.0
71.486931863 160.0
71.491855719 165.0
71.496779575 145.0
71.501703431 173.0
71.506627287 162.0
71.511551143 146.0
71.516474999 162.0
71.521398855 168.0
71.526322711 166.0
71.531246567 168.0
71.536170423 173.0
71.541094279 162.0
71.546018135 174.0
71.550941991 169.0
71.555865847 151.0
71.560789703 142.0
71.565713559 169.0
71.570637415 178.0
71.575561271 197.0
71.580485127 162.0
71.585408983 157.0
71.590332839 158.0
71.595256695 154.0
71.600180551 143.0
71.605104407 149.0
71.610028263 175.0
71.614952119 180.0
71.619875975 169.0
71.624799831 161.0
71.629723687 194.0
71.634647543 152.0
71.639571399 131.0
71.644495255 140.0
71.649419111 162.0
71.654342967 160.0
71.659266823 156.0
71.664190679 161.0
71.669114535 150.0
71.674038391 151.0
71.678962247 146.0
71.683886103 172.0
71.688809959 188.0
71.693733815 137.0
71.698657671 187.0
71.703581527 167.0
71.708505383 148.0
71.713429239 142.0
71.718353095 193.0
71.723276951 149.0
71.728200807 159.0
71.733124663 182.0
71.738048519 157.0
71.742972375 164.0
71.747896231 146.0
71.752820087 159.0
71.757743943 172.0
71.762667799 155.0
71.767591655 144.0
71.772515511 181.0
71.777439367 161.0
71.782363223 156.0
71.787287079 181.0
71.792210935 151.0
71.797134791 157.0
71.802058647 163.0
71.806982503 172.0
71.811906359 130.0
71.816830215 152.0
71.821754071 136.0
71.826677927 146.0
71.831601783 152.0
71.836525639 162.0
71.841449495 188.0
71.846373351 161.0
71.851297208 136.0
71.856221064 177.0
71.861144920 162.0
71.866068776 147.0
71.870992632 171.0
71.875916488 144.0
71.880840344 175.0
71.885764200 148.0
71.890688056 152.0
71.895611912 144.0
71.900535768 159.0
71.905459624 160.0
71.910383480 170.0
71.915307336 151.0
71.920231192 147.0
71.925155048 142.0
71.930078904 154.0
71.935002760 147.0
71.939926616 156.0
71.944850472 152.0
71.949774328 190.0
71.954698184 168.0
71.959622040 145.0
71.964545896 150.0
71.969469752 141.0
71.974393608 171.0
71.979317464 146.0
71.984241320 145.0
71.989165176 157.0
71.994089032 181.0
71.999012888 151.0
72.003936744 157.0
72.008860600 183.0
72.013784456 175.0
72.018708312 175.0
72.023632168 157.0
72.028556024 154.0
72.033479880 170.0
72.038403736 155.0
72.043327592 146.0
72.048251448 163.0
72.053175304 167.0
72.058099160 151.0
72.063023016 145.0
72.067946872 154.0
72.072870728 161.0
72.077794584 148.0
72.082718440 172.0
72.087642296 143.0
72.092566152 144.0
72.097490008 166.0
72.102413864 162.0
72.107337720 169.0
72.112261576 150.0
72.117185432 173.0
72.122109288 154.0
72.127033144 162.0
72.131957000 162.0
72.136880856 135.0
72.141804712 163.0
72.146728568 136.0
72.151652424 158.0
72.156576280 142.0
72.161500136 155.0
72.166423992 144.0
72.171347848 134.0
72.176271704 161.0
72.181195560 171.0
72.186119416 155.0
72.191043272 149.0
72.195967128 162.0
72.200890984 173.0
72.205814840 159.0
72.210738696 148.0
72.215662552 146.0
72.220586409 152.0
72.225510265 153.0
72.230434121 145.0
72.235357977 134.0
72.240281833 144.0
72.245205689 163.0
72.250129545 132.0
72.255053401 159.0
72.259977257 168.0
72.264901113 168.0
72.269824969 133.0
72.274748825 167.0
72.279672681 144.0
72.284596537 169.0
72.289520393 161.0
72.294444249 142.0
72.299368105 146.0
72.304291961 161.0
72.309215817 162.0
72.314139673 157.0
72.319063529 141.0
72.323987385 148.0
72.328911241 150.0
72.333835097 170.0
72.338758953 146.0
72.343682809 186.0
72.348606665 152.0
72.353530521 159.0
72.358454377 148.0
72.363378233 148.0
72.368302089 136.0
72.373225945 148.0
72.378149801 129.0
72.383073657 149.0
72.387997513 150.0
72.392921369 166.0
72.397845225 168.0
72.402769081 132.0
72.407692937 174.0
72.412616793 143.0
72.417540649 150.0
72.422464505 158.0
72.427388361 147.0
72.432312217 159.0
72.437236073 157.0
72.442159929 145.0
72.447083785 161.0
72.452007641 143.0
72.456931497 155.0
72.461855353 150.0
72.466779209 160.0
72.471703065 166.0
72.476626921 132.0
72.481550777 157.0
72.486474633 157.0
72.491398489 186.0
72.496322345 148.0
72.501246201 156.0
72.506170057 173.0
72.511093913 161.0
72.516017769 179.0
72.520941625 174.0
72.525865481 144.0
72.530789337 153.0
72.535713193 135.0
72.540637049 164.0
72.545560905 159.0
72.550484761 157.0
72.555408617 150.0
72.560332473 158.0
72.565256329 159.0
72.570180185 153.0
72.575104041 163.0
72.580027897 164.0
72.584951753 158.0
72.589875609 157.0
72.594799466 160.0
72.599723322 153.0
72.604647178 157.0
72.609571034 168.0
72.614494890 157.0
72.619418746 150.0
72.624342602 159.0
72.629266458 160.0
72.634190314 164.0
72.639114170 177.0
72.644038026 138.0
72.648961882 144.0
72.653885738 142.0
72.658809594 152.0
72.663733450 153.0
72.668657306 144.0
72.673581162 137.0
72.678505018 158.0
72.683428874 155.0
72.688352730 155.0
72.693276586 164.0
72.698200442 162.0
72.703124298 168.0
72.708048154 143.0
72.712972010 148.0
72.717895866 143.0
72.722819722 140.0
72.727743578 158.0
72.732667434 149.0
72.737591290 171.0
72.742515146 151.0
72.747439002 144.0
72.752362858 176.0
72.757286714 148.0
72.762210570 140.0
72.767134426 145.0
72.772058282 146.0
72.776982138 183.0
72.781905994 147.0
72.786829850 165.0
72.791753706 136.0
72.796677562 139.0
72.801601418 125.0
72.806525274 143.0
72.811449130 150.0
72.816372986 136.0
72.821296842 159.0
72.826220698 169.0
72.831144554 145.0
72.836068410 164.0
72.840992266 156.0
72.845916122 183.0
72.850839978 154.0
72.855763834 154.0
72.860687690 178.0
72.865611546 165.0
72.870535402 138.0
72.875459258 151.0
72.880383114 154.0
72.885306970 141.0
72.890230826 144.0
72.895154682 169.0
72.900078538 163.0
72.905002394 165.0
72.909926250 140.0
72.914850106 135.0
72.919773962 151.0
72.924697818 140.0
72.929621674 165.0
72.934545530 151.0
72.939469386 156.0
72.944393242 141.0
72.949317098 153.0
72.954240954 145.0
72.959164810 138.0
72.964088667 165.0
72.969012523 157.0
72.973936379 139.0
72.978860235 169.0
72.983784091 168.0
72.988707947 144.0
72.993631803 149.0
72.998555659 154.0
73.003479515 148.0
73.008403371 144.0
73.013327227 140.0
73.018251083 145.0
73.023174939 154.0
73.028098795 159.0
73.033022651 154.0
73.037946507 157.0
73.042870363 171.0
73.047794219 145.0
73.052718075 141.0
73.057641931 157.0
73.062565787 137.0
73.067489643 152.0
73.072413499 145.0
73.077337355 154.0
73.082261211 152.0
73.087185067 172.0
73.092108923 151.0
73.097032779 153.0
73.101956635 162.0
73.106880491 145.0
73.111804347 137.0
73.116728203 151.0
73.121652059 151.0
73.126575915 157.0
73.131499771 156.0
73.136423627 165.0
73.141347483 159.0
73.146271339 158.0
73.151195195 164.0
73.156119051 154.0
73.161042907 160.0
73.165966763 147.0
73.170890619 136.0
73.175814475 145.0
73.180738331 128.0
73.185662187 160.0
73.190586043 126.0
73.195509899 143.0
73.200433755 148.0
73.205357611 143.0
73.210281467 148.0
73.215205323 154.0
73.220129179 157.0
73.225053035 134.0
73.229976891 144.0
73.234900747 140.0
73.239824603 140.0
73.244748459 136.0
73.249672315 175.0
73.254596171 138.0
73.259520027 146.0
73.264443883 150.0
73.269367739 142.0
73.274291595 155.0
73.279215451 148.0
73.284139307 146.0
73.289063163 163.0
73.293987019 131.0
73.298910875 136.0
73.303834731 180.0
73.308758587 153.0
73.313682443 165.0
73.318606299 146.0
73.323530155 145.0
73.328454011 136.0
73.333377868 171.0
73.338301724 140.0
73.343225580 161.0
73.348149436 152.0
73.353073292 158.0
73.357997148 145.0
73.362921004 154.0
73.367844860 146.0
73.372768716 167.0
73.377692572 151.0
73.382616428 146.0
73.387540284 154.0
73.392464140 153.0
73.397387996 157.0
73.402311852 154.0
73.407235708 139.0
73.412159564 150.0
73.417083420 153.0
73.422007276 137.0
73.426931132 158.0
73.431854988 147.0
73.436778844 143.0
73.441702700 158.0
73.446626556 150.0
73.451550412 150.0
73.456474268 171.0
73.461398124 164.0
73.466321980 136.0
73.471245836 171.0
73.476169692 158.0
73.481093548 133.0
73.486017404 150.0
73.490941260 150.0
73.495865116 157.0
73.500788972 170.0
73.505712828 146.0
73.510636684 136.0
73.515560540 133.0
73.520484396 139.0
73.525408252 153.0
73.530332108 127.0
73.535255964 169.0
73.540179820 147.0
73.545103676 159.0
73.550027532 166.0
73.554951388 146.0
73.559875244 158.0
73.564799100 144.0
73.569722956 141.0
73.574646812 156.0
73.579570668 152.0
73.584494524 164.0
73.589418380 153.0
73.594342236 167.0
73.599266092 130.0
73.604189948 163.0
73.609113804 159.0
73.614037660 162.0
73.618961516 163.0
73.623885372 119.0
73.628809228 145.0
73.633733084 132.0
73.638656940 167.0
73.643580796 143.0
73.648504652 172.0
73.653428508 141.0
73.658352364 134.0
73.663276220 143.0
73.668200076 120.0
73.673123932 159.0
73.678047788 163.0
73.682971644 156.0
73.687895500 142.0
73.692819356 143.0
73.697743212 167.0
73.702667069 145.0
73.707590925 136.0
73.712514781 146.0
73.717438637 135.0
73.722362493 163.0
73.727286349 146.0
73.732210205 147.0
73.737134061 157.0
73.742057917 174.0
73.746981773 144.0
73.751905629 170.0
73.756829485 134.0
73.761753341 162.0
73.766677197 134.0
73.771601053 142.0
73.776524909 155.0
73.781448765 172.0
73.786372621 153.0
73.791296477 146.0
73.796220333 150.0
73.801144189 150.0
73.806068045 171.0
73.810991901 139.0
73.815915757 148.0
73.820839613 153.0
73.825763469 139.0
73.830687325 153.0
73.835611181 152.0
73.840535037 159.0
73.845458893 133.0
73.850382749 155.0
73.855306605 157.0
73.860230461 172.0
73.865154317 136.0
73.870078173 129.0
73.875002029 131.0
73.879925885 143.0
73.884849741 137.0
73.889773597 131.0
73.894697453 139.0
73.899621309 122.0
73.904545165 153.0
73.909469021 123.0
73.914392877 160.0
73.919316733 147.0
73.924240589 135.0
73.929164445 134.0
73.934088301 151.0
73.939012157 149.0
73.943936013 158.0
73.948859869 151.0
73.953783725 143.0
73.958707581 151.0
73.963631437 152.0
73.968555293 160.0
73.973479149 136.0
73.978403005 146.0
73.983326861 154.0
73.988250717 153.0
73.993174573 160.0
73.998098429 147.0
74.003022285 134.0
74.007946141 148.0
74.012869997 144.0
74.017793853 161.0
74.022717709 140.0
74.027641565 162.0
74.032565421 136.0
74.037489277 138.0
74.042413133 123.0
74.047336989 157.0
74.052260845 169.0
74.057184701 152.0
74.062108557 149.0
74.067032413 156.0
74.071956270 131.0
74.076880126 166.0
74.081803982 164.0
74.086727838 149.0
74.091651694 117.0
74.096575550 155.0
74.101499406 138.0
74.106423262 140.0
74.111347118 132.0
74.116270974 161.0
74.121194830 156.0
74.126118686 166.0
74.131042542 144.0
74.135966398 149.0
74.140890254 156.0
74.145814110 135.0
74.150737966 161.0
74.155661822 136.0
74.160585678 126.0
74.165509534 151.0
74.170433390 141.0
74.175357246 153.0
74.180281102 156.0
74.185204958 122.0
74.190128814 137.0
74.195052670 131.0
74.199976526 145.0
74.204900382 141.0
74.209824238 122.0
74.214748094 160.0
74.219671950 163.0
74.224595806 150.0
74.229519662 146.0
74.234443518 162.0
74.239367374 123.0
74.244291230 150.0
74.249215086 158.0
74.254138942 155.0
74.259062798 124.0
74.263986654 158.0
74.268910510 140.0
74.273834366 157.0
74.278758222 159.0
74.283682078 148.0
74.288605934 153.0
74.293529790 155.0
74.298453646 160.0
74.303377502 161.0
74.308301358 127.0
74.313225214 128.0
74.318149070 132.0
74.323072926 138.0
74.327996782 150.0
74.332920638 125.0
74.337844494 143.0
74.342768350 144.0
74.347692206 159.0
74.352616062 161.0
74.357539918 136.0
74.362463774 180.0
74.367387630 155.0
74.372311486 144.0
74.377235342 153.0
74.382159198 150.0
74.387083054 141.0
74.392006910 130.0
74.396930766 167.0
74.401854622 144.0
74.406778478 153.0
74.411702334 159.0
74.416626190 139.0
74.421550046 157.0
74.426473902 165.0
74.431397758 146.0
74.436321614 152.0
74.441245470 154.0
74.446169327 164.0
74.451093183 152.0
74.456017039 135.0
74.460940895 135.0
74.465864751 144.0
74.470788607 151.0
74.475712463 150.0
74.480636319 156.0
74.485560175 148.0
74.490484031 143.0
74.495407887 140.0
74.500331743 136.0
74.505255599 128.0
74.510179455 140.0
74.515103311 146.0
74.520027167 145.0
74.524951023 134.0
74.529874879 143.0
74.534798735 150.0
74.539722591 145.0
74.544646447 156.0
74.549570303 145.0
74.554494159 132.0
74.559418015 139.0
74.564341871 145.0
74.569265727 155.0
74.574189583 153.0
74.579113439 141.0
74.584037295 122.0
74.588961151 131.0
74.593885007 155.0
74.598808863 146.0
74.603732719 128.0
74.608656575 123.0
74.613580431 134.0
74.618504287 139.0
74.623428143 129.0
74.628351999 150.0
74.633275855 147.0
74.638199711 150.0
74.643123567 145.0
74.648047423 159.0
74.652971279 154.0
74.657895135 131.0
74.662818991 172.0
74.667742847 143.0
74.672666703 139.0
74.677590559 149.0
74.682514415 142.0
74.687438271 147.0
74.692362127 119.0
74.697285983 149.0
74.702209839 149.0
74.707133695 149.0
74.712057551 157.0
74.716981407 140.0
74.721905263 148.0
74.726829119 135.0
74.731752975 155.0
74.736676831 133.0
74.741600687 155.0
74.746524543 128.0
74.751448399 161.0
74.756372255 164.0
74.761296111 137.0
74.766219967 167.0
74.771143823 154.0
74.776067679 170.0
74.780991535 126.0
74.785915391 144.0
74.790839247 154.0
74.795763103 161.0
74.800686959 121.0
74.805610815 153.0
74.810534671 131.0
74.815458528 139.0
74.820382384 122.0
74.825306240 111.0
74.830230096 147.0
74.835153952 152.0
74.840077808 165.0
74.845001664 146.0
74.849925520 146.0
74.854849376 159.0
74.859773232 152.0
74.864697088 164.0
74.869620944 134.0
74.874544800 152.0
74.879468656 138.0
74.884392512 160.0
74.889316368 160.0
74.894240224 141.0
74.899164080 135.0
74.904087936 141.0
74.909011792 139.0
74.913935648 137.0
74.918859504 132.0
74.923783360 138.0
74.928707216 156.0
74.933631072 149.0
74.938554928 135.0
74.943478784 140.0
74.948402640 136.0
74.953326496 143.0
74.958250352 157.0
74.963174208 141.0
74.968098064 176.0
74.973021920 151.0
74.977945776 151.0
74.982869632 157.0
74.987793488 170.0
74.992717344 148.0
74.997641200 145.0
