45.002461930 110.0
45.007385786 101.0
45.012309642 122.0
45.017233498 139.0
45.022157354 125.0
45.027081210 94.0
45.032005066 108.0
45.036928922 121.0
45.041852778 131.0
45.046776634 101.0
45.051700490 111.0
45.056624346 89.0
45.061548202 115.0
45.066472058 124.0
45.071395914 112.0
45.076319770 107.0
45.081243626 114.0
45.086167482 97.0
45.091091338 122.0
45.096015194 123.0
45.100939050 118.0
45.105862906 109.0
45.110786762 100.0
45.115710618 102.0
45.120634474 115.0
45.125558330 106.0
45.130482186 129.0
45.135406042 94.0
45.140329898 100.0
45.145253754 130.0
45.150177610 125.0
45.155101466 112.0
45.160025322 118.0
45.164949178 106.0
45.169873034 117.0
45.174796890 104.0
45.179720746 120.0
45.184644602 126.0
45.189568458 137.0
45.194492314 108.0
45.199416170 112.0
45.204340026 113.0
45.209263882 108.0
45.214187738 97.0
45.219111594 112.0
45.224035450 91.0
45.228959306 132.0
45.233883162 112.0
45.238807018 121.0
45.243730874 110.0
45.248654730 121.0
45.253578587 106.0
45.258502443 105.0
45.263426299 112.0
45.268350155 103.0
45.273274011 110.0
45.278197867 104.0
45.283121723 109.0
45.288045579 120.0
45.292969435 107.0
45.297893291 107.0
45.302817147 99.0
45.307741003 120.0
45.312664859 104.0
45.317588715 106.0
45.322512571 113.0
45.327436427 105.0
45.332360283 125.0
45.337284139 103.0
45.342207995 118.0
45.347131851 122.0
45.352055707 102.0
45.356979563 126.0
45.361903419 115.0
45.366827275 114.0
45.371751131 119.0
45.376674987 108.0
45.381598843 99.0
45.386522699 104.0
45.391446555 112.0
45.396370411 96.0
45.401294267 114.0
45.406218123 116.0
45.411141979 104.0
45.416065835 98.0
45.420989691 99.0
45.425913547 117.0
45.430837403 107.0
45.435761259 98.0
45.440685115 101.0
45.445608971 108.0
45.450532827 114.0
45.455456683 113.0
45.460380539 121.0
45.465304395 116.0
45.470228251 120.0
45.475152107 107.0
45.480075963 115.0
45.484999819 119.0
45.489923675 100.0
45.494847531 102.0
45.499771387 132.0
45.504695243 98.0
45.509619099 127.0
45.514542955 115.0
45.519466811 115.0
45.524390667 108.0
45.529314523 115.0
45.534238379 120.0
45.539162235 114.0
45.544086091 108.0
45.549009947 113.0
45.553933803 95.0
45.558857659 118.0
45.563781515 106.0
45.568705371 97.0
45.573629227 103.0
45.578553083 122.0
45.583476939 98.0
45.588400795 93.0
45.593324651 109.0
45.598248507 91.0
45.603172363 112.0
45.608096219 110.0
45.613020075 102.0
45.617943931 101.0
45.622867787 96.0
45.627791643 108.0
45.632715499 99.0
45.637639355 121.0
45.642563211 121.0
45.647487067 111.0
45.652410923 102.0
45.657334779 115.0
45.662258635 120.0
45.667182491 125.0
45.672106347 106.0
45.677030203 90.0
45.681954059 110.0
45.686877915 127.0
45.691801771 107.0
45.696725627 104.0
45.701649483 100.0
45.706573339 124.0
45.711497195 109.0
45.716421051 102.0
45.721344907 105.0
45.726268763 103.0
45.731192619 124.0
45.736116475 104.0
45.741040331 108.0
45.745964187 116.0
45.750888043 113.0
45.755811900 100.0
45.760735756 113.0
45.765659612 107.0
45.770583468 96.0
45.775507324 104.0
45.780431180 99.0
45.785355036 105.0
45.790278892 116.0
45.795202748 115.0
45.800126604 128.0
45.805050460 120.0
45.809974316 114.0
45.814898172 96.0
45.819822028 112.0
45.824745884 117.0
45.829669740 103.0
45.834593596 123.0
45.839517452 99.0
45.844441308 119.0
45.849365164 114.0
45.854289020 95.0
45.859212876 120.0
45.864136732 105.0
45.869060588 114.0
45.873984444 134.0
45.878908300 134.0
45.883832156 106.0
45.888756012 122.0
45.893679868 115.0
45.898603724 95.0
45.903527580 120.0
45.908451436 98.0
45.913375292 120.0
45.918299148 105.0
45.923223004 112.0
45.928146860 107.0
45.933070716 112.0
45.937994572 116.0
45.942918428 117.0
45.947842284 108.0
45.952766140 113.0
45.957689996 84.0
45.962613852 104.0
45.967537708 116.0
45.972461564 109.0
45.977385420 121.0
45.982309276 97.0
45.987233132 111.0
45.992156988 126.0
45.997080844 110.0
46.002004700 112.0
46.006928556 109.0
46.011852412 102.0
46.016776268 110.0
46.021700124 107.0
46.026623980 102.0
46.031547836 99.0
46.036471692 106.0
46.041395548 114.0
46.046319404 107.0
46.051243260 124.0
46.056167116 115.0
46.061090972 88.0
46.066014828 106.0
46.070938684 131.0
46.075862540 122.0
46.080786396 109.0
46.085710252 116.0
46.090634108 100.0
46.095557964 121.0
46.100481820 110.0
46.105405676 102.0
46.110329532 122.0
46.115253388 95.0
46.120177244 106.0
46.125101100 112.0
46.130024956 91.0
46.134948812 91.0
46.139872668 99.0
46.144796524 104.0
46.149720380 109.0
46.154644236 108.0
46.159568092 112.0
46.164491948 102.0
46.169415804 109.0
46.174339660 115.0
46.179263516 120.0
46.184187372 104.0
46.189111228 112.0
46.194035084 117.0
46.198958940 124.0
46.203882796 112.0
46.208806652 104.0
46.213730508 113.0
46.218654364 98.0
46.223578220 127.0
46.228502076 121.0
46.233425932 111.0
46.238349788 104.0
46.243273644 128.0
46.248197500 131.0
46.253121357 118.0
46.258045213 106.0
46.262969069 95.0
46.267892925 106.0
46.272816781 112.0
46.277740637 125.0
46.282664493 115.0
46.287588349 110.0
46.292512205 102.0
46.297436061 116.0
46.302359917 113.0
46.307283773 110.0
46.312207629 114.0
46.317131485 111.0
46.322055341 109.0
46.326979197 116.0
46.331903053 111.0
46.336826909 113.0
46.341750765 121.0
46.346674621 119.0
46.351598477 107.0
46.356522333 140.0
46.361446189 116.0
46.366370045 89.0
46.371293901 97.0
46.376217757 108.0
46.381141613 109.0
46.386065469 110.0
46.390989325 107.0
46.395913181 101.0
46.400837037 95.0
46.405760893 108.0
46.410684749 115.0
46.415608605 106.0
46.420532461 114.0
46.425456317 125.0
46.430380173 118.0
46.435304029 134.0
46.440227885 97.0
46.445151741 101.0
46.450075597 113.0
46.454999453 126.0
46.459923309 123.0
46.464847165 112.0
46.469771021 116.0
46.474694877 122.0
46.479618733 126.0
46.484542589 109.0
46.489466445 99.0
46.494390301 115.0
46.499314157 119.0
46.504238013 104.0
46.509161869 119.0
46.514085725 136.0
46.519009581 97.0
46.523933437 109.0
46.528857293 126.0
46.533781149 107.0
46.538705005 104.0
46.543628861 115.0
46.548552717 110.0
46.553476573 98.0
46.558400429 116.0
46.563324285 125.0
46.568248141 116.0
46.573171997 91.0
46.578095853 90.0
46.583019709 101.0
46.587943565 110.0
46.592867421 112.0
46.597791277 98.0
46.602715133 112.0
46.607638989 106.0
46.612562845 118.0
46.617486701 122.0
46.622410557 103.0
46.627334413 108.0
46.632258269 105.0
46.637182125 119.0
46.642105981 117.0
46.647029837 111.0
46.651953693 117.0
46.656877549 128.0
46.661801405 110.0
46.666725261 116.0
46.671649117 130.0
46.676572973 121.0
46.681496829 117.0
46.686420685 127.0
46.691344541 132.0
46.696268397 98.0
46.701192253 107.0
46.706116109 131.0
46.711039965 154.0
46.715963821 142.0
46.720887677 111.0
46.725811533 127.0
46.730735389 124.0
46.735659245 133.0
46.740583101 128.0
46.745506957 162.0
46.750430813 139.0
46.755354670 131.0
46.760278526 133.0
46.765202382 139.0
46.770126238 116.0
46.775050094 115.0
46.779973950 126.0
46.784897806 122.0
46.789821662 107.0
46.794745518 119.0
46.799669374 138.0
46.804593230 123.0
46.809517086 126.0
46.814440942 128.0
46.819364798 137.0
46.824288654 138.0
46.829212510 108.0
46.834136366 138.0
46.839060222 138.0
46.843984078 139.0
46.848907934 129.0
46.853831790 121.0
46.858755646 116.0
46.863679502 109.0
46.868603358 139.0
46.873527214 118.0
46.878451070 128.0
46.883374926 123.0
46.888298782 130.0
46.893222638 153.0
46.898146494 155.0
46.903070350 116.0
46.907994206 133.0
46.912918062 127.0
46.917841918 148.0
46.922765774 125.0
46.927689630 130.0
46.932613486 131.0
46.937537342 152.0
46.942461198 129.0
46.947385054 132.0
46.952308910 132.0
46.957232766 127.0
46.962156622 121.0
46.967080478 157.0
46.972004334 145.0
46.976928190 140.0
46.981852046 142.0
46.986775902 162.0
46.991699758 131.0
46.996623614 146.0
47.001547470 128.0
47.006471326 138.0
47.011395182 167.0
47.016319038 160.0
47.021242894 180.0
47.026166750 171.0
47.031090606 206.0
47.036014462 191.0
47.040938318 210.0
47.045862174 263.0
47.050786030 296.0
47.055709886 350.0
47.060633742 377.0
47.065557598 414.0
47.070481454 495.0
47.075405310 616.0
47.080329166 749.0
47.085253022 933.0
47.090176878 1101.0
47.095100734 1212.0
47.100024590 1468.0
47.104948446 1614.0
47.109872302 1669.0
47.114796158 1676.0
47.119720014 1740.0
47.124643870 1689.0
47.129567726 1714.0
47.134491582 1648.0
47.139415438 1545.0
47.144339294 1398.0
47.149263150 1165.0
47.154187006 1061.0
47.159110862 938.0
47.164034718 789.0
47.168958574 697.0
47.173882430 598.0
47.178806286 587.0
47.183730142 526.0
47.188653998 509.0
47.193577854 534.0
47.198501710 494.0
47.203425566 496.0
47.208349422 499.0
47.213273278 471.0
47.218197134 448.0
47.223120990 432.0
47.228044846 378.0
47.232968702 348.0
47.237892558 313.0
47.242816414 308.0
47.247740270 268.0
47.252664127 220.0
47.257587983 210.0
47.262511839 218.0
47.267435695 209.0
47.272359551 205.0
47.277283407 184.0
47.282207263 189.0
47.287131119 194.0
47.292054975 169.0
47.296978831 171.0
47.301902687 167.0
47.306826543 177.0
47.311750399 166.0
47.316674255 179.0
47.321598111 172.0
47.326521967 146.0
47.331445823 155.0
47.336369679 160.0
47.341293535 159.0
47.346217391 174.0
47.351141247 160.0
47.356065103 161.0
47.360988959 133.0
47.365912815 154.0
47.370836671 166.0
47.375760527 130.0
47.380684383 144.0
47.385608239 151.0
47.390532095 159.0
47.395455951 122.0
47.400379807 139.0
47.405303663 147.0
47.410227519 149.0
47.415151375 140.0
47.420075231 144.0
47.424999087 142.0
47.429922943 150.0
47.434846799 154.0
47.439770655 142.0
47.444694511 147.0
47.449618367 149.0
47.454542223 145.0
47.459466079 146.0
47.464389935 123.0
47.469313791 158.0
47.474237647 143.0
47.479161503 130.0
47.484085359 136.0
47.489009215 149.0
47.493933071 125.0
47.498856927 146.0
47.503780783 131.0
47.508704639 139.0
47.513628495 133.0
47.518552351 127.0
47.523476207 138.0
47.528400063 154.0
47.533323919 154.0
47.538247775 152.0
47.543171631 131.0
47.548095487 128.0
47.553019343 123.0
47.557943199 127.0
47.562867055 125.0
47.567790911 136.0
47.572714767 128.0
47.577638623 140.0
47.582562479 122.0
47.587486335 117.0
47.592410191 143.0
47.597334047 96.0
47.602257903 124.0
47.607181759 117.0
47.612105615 135.0
47.617029471 127.0
47.621953327 121.0
47.626877183 118.0
47.631801039 139.0
47.636724895 134.0
47.641648751 131.0
47.646572607 154.0
47.651496463 113.0
47.656420319 129.0
47.661344175 135.0
47.666268031 122.0
47.671191887 125.0
47.676115743 124.0
47.681039599 132.0
47.685963455 125.0
47.690887311 130.0
47.695811167 137.0
47.700735023 128.0
47.705658879 139.0
47.710582735 122.0
47.715506591 117.0
47.720430447 138.0
47.725354303 145.0
47.730278159 141.0
47.735202015 133.0
47.740125871 148.0
47.745049727 146.0
47.749973583 125.0
47.754897440 117.0
47.759821296 121.0
47.764745152 127.0
47.769669008 123.0
47.774592864 120.0
47.779516720 135.0
47.784440576 135.0
47.789364432 117.0
47.794288288 153.0
47.799212144 115.0
47.804136000 148.0
47.809059856 119.0
47.813983712 125.0
47.818907568 124.0
47.823831424 124.0
47.828755280 121.0
47.833679136 154.0
47.838602992 130.0
47.843526848 129.0
47.848450704 117.0
47.853374560 145.0
47.858298416 156.0
47.863222272 124.0
47.868146128 131.0
47.873069984 141.0
47.877993840 133.0
47.882917696 127.0
47.887841552 120.0
47.892765408 134.0
47.897689264 147.0
47.902613120 123.0
47.907536976 135.0
47.912460832 144.0
47.917384688 115.0
47.922308544 148.0
47.927232400 134.0
47.932156256 131.0
47.937080112 137.0
47.942003968 153.0
47.946927824 131.0
47.951851680 140.0
47.956775536 148.0
47.961699392 136.0
47.966623248 146.0
47.971547104 125.0
47.976470960 144.0
47.981394816 125.0
47.986318672 129.0
47.991242528 148.0
47.996166384 138.0
48.001090240 120.0
48.006014096 145.0
48.010937952 143.0
48.015861808 142.0
48.020785664 134.0
48.025709520 136.0
48.030633376 151.0
48.035557232 135.0
48.040481088 148.0
48.045404944 141.0
48.050328800 123.0
48.055252656 124.0
48.060176512 125.0
48.065100368 132.0
48.070024224 145.0
48.074948080 142.0
48.079871936 137.0
48.084795792 131.0
48.089719648 128.0
48.094643504 116.0
48.099567360 140.0
48.104491216 127.0
48.109415072 135.0
48.114338928 158.0
48.119262784 150.0
48.124186640 162.0
48.129110496 125.0
48.134034352 136.0
48.138958208 146.0
48.143882064 148.0
48.148805920 143.0
48.153729776 149.0
48.158653632 154.0
48.163577488 112.0
48.168501344 152.0
48.173425200 148.0
48.178349056 156.0
48.183272912 129.0
48.188196768 149.0
48.193120624 128.0
48.198044480 143.0
48.202968336 128.0
48.207892192 136.0
48.212816048 151.0
48.217739904 123.0
48.222663760 130.0
48.227587616 134.0
48.232511472 124.0
48.237435328 150.0
48.242359184 134.0
48.247283040 133.0
48.252206897 133.0
48.257130753 141.0
48.262054609 132.0
48.266978465 158.0
48.271902321 144.0
48.276826177 150.0
48.281750033 136.0
48.286673889 131.0
48.291597745 126.0
48.296521601 117.0
48.301445457 149.0
48.306369313 149.0
48.311293169 154.0
48.316217025 124.0
48.321140881 142.0
48.326064737 131.0
48.330988593 142.0
48.335912449 158.0
48.340836305 139.0
48.345760161 162.0
48.350684017 150.0
48.355607873 155.0
48.360531729 156.0
48.365455585 143.0
48.370379441 154.0
48.375303297 163.0
48.380227153 143.0
48.385151009 166.0
48.390074865 146.0
48.394998721 145.0
48.399922577 143.0
48.404846433 135.0
48.409770289 155.0
48.414694145 150.0
48.419618001 129.0
48.424541857 166.0
48.429465713 153.0
48.434389569 148.0
48.439313425 150.0
48.444237281 146.0
48.449161137 151.0
48.454084993 129.0
48.459008849 148.0
48.463932705 147.0
48.468856561 151.0
48.473780417 157.0
48.478704273 157.0
48.483628129 117.0
48.488551985 160.0
48.493475841 141.0
48.498399697 141.0
48.503323553 154.0
48.508247409 178.0
48.513171265 167.0
48.518095121 164.0
48.523018977 161.0
48.527942833 142.0
48.532866689 170.0
48.537790545 179.0
48.542714401 136.0
48.547638257 163.0
48.552562113 176.0
48.557485969 141.0
48.562409825 156.0
48.567333681 151.0
48.572257537 155.0
48.577181393 159.0
48.582105249 146.0
48.587029105 148.0
48.591952961 162.0
48.596876817 151.0
48.601800673 168.0
48.606724529 165.0
48.611648385 183.0
48.616572241 173.0
48.621496097 147.0
48.626419953 158.0
48.631343809 144.0
48.636267665 176.0
48.641191521 164.0
48.646115377 149.0
48.651039233 167.0
48.655963089 155.0
48.660886945 167.0
48.665810801 166.0
48.670734657 187.0
48.675658513 166.0
48.680582369 174.0
48.685506225 168.0
48.690430081 160.0
48.695353937 147.0
48.700277793 161.0
48.705201649 171.0
48.710125505 149.0
48.715049361 160.0
48.719973217 144.0
48.724897073 171.0
48.729820929 173.0
48.734744785 141.0
48.739668641 184.0
48.744592497 169.0
48.749516353 157.0
48.754440210 164.0
48.759364066 171.0
48.764287922 198.0
48.769211778 169.0
48.774135634 161.0
48.779059490 205.0
48.783983346 177.0
48.788907202 179.0
48.793831058 186.0
48.798754914 178.0
48.803678770 203.0
48.808602626 179.0
48.813526482 170.0
48.818450338 189.0
48.823374194 154.0
48.828298050 183.0
48.833221906 171.0
48.838145762 183.0
48.843069618 172.0
48.847993474 178.0
48.852917330 163.0
48.857841186 181.0
48.862765042 169.0
48.867688898 204.0
48.872612754 172.0
48.877536610 186.0
48.882460466 187.0
48.887384322 205.0
48.892308178 191.0
48.897232034 197.0
48.902155890 195.0
48.907079746 211.0
48.912003602 182.0
48.916927458 178.0
48.921851314 201.0
48.926775170 183.0
48.931699026 215.0
48.936622882 204.0
48.941546738 203.0
48.946470594 211.0
48.951394450 190.0
48.956318306 169.0
48.961242162 189.0
48.966166018 200.0
48.971089874 208.0
48.976013730 220.0
48.980937586 208.0
48.985861442 217.0
48.990785298 211.0
48.995709154 239.0
49.000633010 243.0
49.005556866 210.0
49.010480722 211.0
49.015404578 195.0
49.020328434 216.0
49.025252290 223.0
49.030176146 230.0
49.035100002 214.0
49.040023858 216.0
49.044947714 211.0
49.049871570 219.0
49.054795426 231.0
49.059719282 239.0
49.064643138 220.0
49.069566994 249.0
49.074490850 259.0
49.079414706 237.0
49.084338562 236.0
49.089262418 222.0
49.094186274 238.0
49.099110130 261.0
49.104033986 286.0
49.108957842 238.0
49.113881698 234.0
49.118805554 263.0
49.123729410 230.0
49.128653266 270.0
49.133577122 272.0
49.138500978 249.0
49.143424834 247.0
49.148348690 274.0
49.153272546 292.0
49.158196402 278.0
49.163120258 264.0
49.168044114 262.0
49.172967970 277.0
49.177891826 298.0
49.182815682 246.0
49.187739538 289.0
49.192663394 279.0
49.197587250 330.0
49.202511106 272.0
49.207434962 271.0
49.212358818 285.0
49.217282674 327.0
49.222206530 316.0
49.227130386 309.0
49.232054242 298.0
49.236978098 326.0
49.241901954 322.0
49.246825810 354.0
49.251749667 301.0
49.256673523 353.0
49.261597379 330.0
49.266521235 353.0
49.271445091 372.0
49.276368947 352.0
49.281292803 371.0
49.286216659 363.0
49.291140515 388.0
49.296064371 377.0
49.300988227 366.0
49.305912083 424.0
49.310835939 367.0
49.315759795 398.0
49.320683651 408.0
49.325607507 418.0
49.330531363 409.0
49.335455219 449.0
49.340379075 423.0
49.345302931 453.0
49.350226787 454.0
49.355150643 492.0
49.360074499 519.0
49.364998355 455.0
49.369922211 511.0
49.374846067 473.0
49.379769923 531.0
49.384693779 504.0
49.389617635 513.0
49.394541491 567.0
49.399465347 565.0
49.404389203 605.0
49.409313059 540.0
49.414236915 566.0
49.419160771 566.0
49.424084627 615.0
49.429008483 614.0
49.433932339 653.0
49.438856195 655.0
49.443780051 728.0
49.448703907 666.0
49.453627763 721.0
49.458551619 725.0
49.463475475 757.0
49.468399331 779.0
49.473323187 825.0
49.478247043 846.0
49.483170899 841.0
49.488094755 863.0
49.493018611 925.0
49.497942467 965.0
49.502866323 893.0
49.507790179 951.0
49.512714035 1015.0
49.517637891 995.0
49.522561747 1102.0
49.527485603 1106.0
49.532409459 1171.0
49.537333315 1188.0
49.542257171 1206.0
49.547181027 1286.0
49.552104883 1276.0
49.557028739 1399.0
49.561952595 1378.0
49.566876451 1438.0
49.571800307 1470.0
49.576724163 1584.0
49.581648019 1628.0
49.586571875 1746.0
49.591495731 1656.0
49.596419587 1826.0
49.601343443 1818.0
49.606267299 1872.0
49.611191155 1960.0
49.616115011 2081.0
49.621038867 2183.0
49.625962723 2121.0
49.630886579 2274.0
49.635810435 2322.0
49.640734291 2464.0
49.645658147 2564.0
49.650582003 2624.0
49.655505859 2770.0
49.660429715 2719.0
49.665353571 2839.0
49.670277427 2970.0
49.675201283 3076.0
49.680125139 3148.0
49.685048995 3183.0
49.689972851 3305.0
49.694896707 3481.0
49.699820563 3522.0
49.704744419 3739.0
49.709668275 3622.0
49.714592131 3862.0
49.719515987 3931.0
49.724439843 3977.0
49.729363699 4061.0
49.734287555 4211.0
49.739211411 4238.0
49.744135267 4257.0
49.749059123 4369.0
49.753982980 4395.0
49.758906836 4477.0
49.763830692 4628.0
49.768754548 4696.0
49.773678404 4752.0
49.778602260 4739.0
49.783526116 4681.0
49.788449972 4889.0
49.793373828 4954.0
49.798297684 5040.0
49.803221540 5176.0
49.808145396 5093.0
49.813069252 5228.0
49.817993108 5257.0
49.822916964 5327.0
49.827840820 5286.0
49.832764676 5247.0
49.837688532 5456.0
49.842612388 5436.0
49.847536244 5492.0
49.852460100 5309.0
49.857383956 5356.0
49.862307812 5413.0
49.867231668 5414.0
49.872155524 5476.0
49.877079380 5388.0
49.882003236 5471.0
49.886927092 5468.0
49.891850948 5463.0
49.896774804 5339.0
49.901698660 5210.0
49.906622516 5311.0
49.911546372 5466.0
49.916470228 5304.0
49.921394084 5334.0
49.926317940 5388.0
49.931241796 5080.0
49.936165652 5194.0
49.941089508 5241.0
49.946013364 5209.0
49.950937220 5072.0
49.955861076 5111.0
49.960784932 4970.0
49.965708788 4904.0
49.970632644 5049.0
49.975556500 4809.0
49.980480356 4548.0
49.985404212 4716.0
49.990328068 4707.0
49.995251924 4645.0
50.000175780 4445.0
50.005099636 4350.0
50.010023492 4336.0
50.014947348 4306.0
50.019871204 4238.0
50.024795060 4089.0
50.029718916 4094.0
50.034642772 3946.0
50.039566628 3862.0
50.044490484 3990.0
50.049414340 3822.0
50.054338196 3816.0
50.059262052 3703.0
50.064185908 3573.0
50.069109764 3645.0
50.074033620 3427.0
50.078957476 3369.0
50.083881332 3324.0
50.088805188 3223.0
50.093729044 3208.0
50.098652900 3108.0
50.103576756 3078.0
50.108500612 3011.0
50.113424468 2982.0
50.118348324 2872.0
50.123272180 2918.0
50.128196036 2832.0
50.133119892 2707.0
50.138043748 2638.0
50.142967604 2638.0
50.147891460 2507.0
50.152815316 2523.0
50.157739172 2392.0
50.162663028 2370.0
50.167586884 2309.0
50.172510740 2271.0
50.177434596 2209.0
50.182358452 2127.0
50.187282308 2105.0
50.192206164 2011.0
50.197130020 2005.0
50.202053876 1982.0
50.206977732 1835.0
50.211901588 1843.0
50.216825444 1789.0
50.221749300 1688.0
50.226673156 1677.0
50.231597012 1672.0
50.236520868 1625.0
50.241444724 1572.0
50.246368580 1547.0
50.251292437 1501.0
50.256216293 1470.0
50.261140149 1479.0
50.266064005 1369.0
50.270987861 1309.0
50.275911717 1325.0
50.280835573 1373.0
50.285759429 1281.0
50.290683285 1252.0
50.295607141 1191.0
50.300530997 1219.0
50.305454853 1134.0
50.310378709 1106.0
50.315302565 1083.0
50.320226421 1056.0
50.325150277 1054.0
50.330074133 952.0
50.334997989 1029.0
50.339921845 970.0
50.344845701 960.0
50.349769557 894.0
50.354693413 868.0
50.359617269 902.0
50.364541125 877.0
50.369464981 892.0
50.374388837 817.0
50.379312693 844.0
50.384236549 772.0
50.389160405 808.0
50.394084261 800.0
50.399008117 758.0
50.403931973 717.0
50.408855829 737.0
50.413779685 708.0
50.418703541 725.0
50.423627397 705.0
50.428551253 640.0
50.433475109 659.0
50.438398965 700.0
50.443322821 632.0
50.448246677 619.0
50.453170533 619.0
50.458094389 643.0
50.463018245 613.0
50.467942101 590.0
50.472865957 545.0
50.477789813 572.0
50.482713669 506.0
50.487637525 531.0
50.492561381 533.0
50.497485237 529.0
50.502409093 510.0
50.507332949 551.0
50.512256805 483.0
50.517180661 472.0
50.522104517 475.0
50.527028373 463.0
50.531952229 438.0
50.536876085 485.0
50.541799941 450.0
50.546723797 444.0
50.551647653 429.0
50.556571509 461.0
50.561495365 393.0
50.566419221 437.0
50.571343077 457.0
50.576266933 428.0
50.581190789 401.0
50.586114645 477.0
50.591038501 393.0
50.595962357 428.0
50.600886213 396.0
50.605810069 440.0
50.610733925 400.0
50.615657781 374.0
50.620581637 372.0
50.625505493 369.0
50.630429349 364.0
50.635353205 335.0
50.640277061 345.0
50.645200917 358.0
50.650124773 346.0
50.655048629 355.0
50.659972485 315.0
50.664896341 370.0
50.669820197 373.0
50.674744053 368.0
50.679667909 343.0
50.684591765 397.0
50.689515621 342.0
50.694439477 355.0
50.699363333 326.0
50.704287189 329.0
50.709211045 346.0
50.714134901 326.0
50.719058757 307.0
50.723982613 319.0
50.728906469 342.0
50.733830325 330.0
50.738754181 325.0
50.743678037 310.0
50.748601893 315.0
50.753525750 304.0
50.758449606 300.0
50.763373462 323.0
50.768297318 334.0
50.773221174 312.0
50.778145030 334.0
50.783068886 308.0
50.787992742 281.0
50.792916598 296.0
50.797840454 328.0
50.802764310 348.0
50.807688166 303.0
50.812612022 302.0
50.817535878 309.0
50.822459734 309.0
50.827383590 308.0
50.832307446 299.0
50.837231302 305.0
50.842155158 338.0
50.847079014 314.0
50.852002870 314.0
50.856926726 306.0
50.861850582 306.0
50.866774438 293.0
50.871698294 282.0
50.876622150 326.0
50.881546006 309.0
50.886469862 271.0
50.891393718 286.0
50.896317574 294.0
50.901241430 325.0
50.906165286 337.0
50.911089142 308.0
50.916012998 293.0
50.920936854 341.0
50.925860710 292.0
50.930784566 310.0
50.935708422 328.0
50.940632278 282.0
50.945556134 315.0
50.950479990 310.0
50.955403846 318.0
50.960327702 266.0
50.965251558 318.0
50.970175414 317.0
50.975099270 294.0
50.980023126 345.0
50.984946982 329.0
50.989870838 295.0
50.994794694 309.0
50.999718550 308.0
51.004642406 290.0
51.009566262 335.0
51.014490118 315.0
51.019413974 345.0
51.024337830 349.0
51.029261686 349.0
51.034185542 335.0
51.039109398 312.0
51.044033254 347.0
51.048957110 322.0
51.053880966 329.0
51.058804822 315.0
51.063728678 324.0
51.068652534 316.0
51.073576390 350.0
51.078500246 341.0
51.083424102 338.0
51.088347958 347.0
51.093271814 351.0
51.098195670 352.0
51.103119526 355.0
51.108043382 382.0
51.112967238 315.0
51.117891094 351.0
51.122814950 346.0
51.127738806 350.0
51.132662662 332.0
51.137586518 344.0
51.142510374 361.0
51.147434230 341.0
51.152358086 318.0
51.157281942 345.0
51.162205798 363.0
51.167129654 372.0
51.172053510 346.0
51.176977366 334.0
51.181901222 359.0
51.186825078 368.0
51.191748934 338.0
51.196672790 383.0
51.201596646 375.0
51.206520502 389.0
51.211444358 373.0
51.216368214 380.0
51.221292070 376.0
51.226215926 401.0
51.231139782 396.0
51.236063638 362.0
51.240987494 374.0
51.245911350 385.0
51.250835207 420.0
51.255759063 359.0
51.260682919 396.0
51.265606775 398.0
51.270530631 393.0
51.275454487 388.0
51.280378343 379.0
51.285302199 378.0
51.290226055 412.0
51.295149911 405.0
51.300073767 404.0
51.304997623 412.0
51.309921479 481.0
51.314845335 367.0
51.319769191 398.0
51.324693047 420.0
51.329616903 428.0
51.334540759 403.0
51.339464615 407.0
51.344388471 402.0
51.349312327 407.0
51.354236183 442.0
51.359160039 390.0
51.364083895 405.0
51.369007751 411.0
51.373931607 412.0
51.378855463 445.0
51.383779319 427.0
51.388703175 446.0
51.393627031 421.0
51.398550887 452.0
51.403474743 438.0
51.408398599 472.0
51.413322455 420.0
51.418246311 435.0
51.423170167 425.0
51.428094023 445.0
51.433017879 465.0
51.437941735 457.0
51.442865591 429.0
51.447789447 464.0
51.452713303 473.0
51.457637159 480.0
51.462561015 449.0
51.467484871 502.0
51.472408727 514.0
51.477332583 443.0
51.482256439 482.0
51.487180295 496.0
51.492104151 533.0
51.497028007 481.0
51.501951863 489.0
51.506875719 496.0
51.511799575 518.0
51.516723431 517.0
51.521647287 481.0
51.526571143 470.0
51.531494999 481.0
51.536418855 550.0
51.541342711 519.0
51.546266567 493.0
51.551190423 497.0
51.556114279 523.0
51.561038135 541.0
51.565961991 514.0
51.570885847 545.0
51.575809703 519.0
51.580733559 519.0
51.585657415 567.0
51.590581271 540.0
51.595505127 604.0
51.600428983 523.0
51.605352839 571.0
51.610276695 528.0
51.615200551 543.0
51.620124407 572.0
51.625048263 553.0
51.629972119 566.0
51.634895975 573.0
51.639819831 583.0
51.644743687 573.0
51.649667543 577.0
51.654591399 573.0
51.659515255 598.0
51.664439111 560.0
51.669362967 559.0
51.674286823 607.0
51.679210679 617.0
51.684134535 609.0
51.689058391 601.0
51.693982247 638.0
51.698906103 597.0
51.703829959 647.0
51.708753815 674.0
51.713677671 628.0
51.718601527 625.0
51.723525383 655.0
51.728449239 656.0
51.733373095 679.0
51.738296951 625.0
51.743220807 680.0
51.748144663 707.0
51.753068520 756.0
51.757992376 681.0
51.762916232 651.0
51.767840088 680.0
51.772763944 695.0
51.777687800 630.0
51.782611656 709.0
51.787535512 733.0
51.792459368 704.0
51.797383224 692.0
51.802307080 705.0
51.807230936 721.0
51.812154792 684.0
51.817078648 697.0
51.822002504 767.0
51.826926360 735.0
51.831850216 727.0
51.836774072 694.0
51.841697928 721.0
51.846621784 784.0
51.851545640 794.0
51.856469496 795.0
51.861393352 798.0
51.866317208 767.0
51.871241064 786.0
51.876164920 821.0
51.881088776 775.0
51.886012632 806.0
51.890936488 808.0
51.895860344 821.0
51.900784200 829.0
51.905708056 868.0
51.910631912 781.0
51.915555768 847.0
51.920479624 881.0
51.925403480 876.0
51.930327336 852.0
51.935251192 888.0
51.940175048 861.0
51.945098904 910.0
51.950022760 910.0
51.954946616 850.0
51.959870472 927.0
51.964794328 953.0
51.969718184 949.0
51.974642040 959.0
51.979565896 958.0
51.984489752 967.0
51.989413608 1029.0
51.994337464 970.0
51.999261320 1043.0
52.004185176 979.0
52.009109032 1074.0
52.014032888 1041.0
52.018956744 1035.0
52.023880600 1075.0
52.028804456 1127.0
52.033728312 1110.0
52.038652168 1124.0
52.043576024 1191.0
52.048499880 1146.0
52.053423736 1174.0
52.058347592 1243.0
52.063271448 1171.0
52.068195304 1296.0
52.073119160 1192.0
52.078043016 1263.0
52.082966872 1247.0
52.087890728 1267.0
52.092814584 1346.0
52.097738440 1451.0
52.102662296 1452.0
52.107586152 1380.0
52.112510008 1388.0
52.117433864 1491.0
52.122357720 1451.0
52.127281576 1549.0
52.132205432 1512.0
52.137129288 1555.0
52.142053144 1657.0
52.146977000 1674.0
52.151900856 1740.0
52.156824712 1701.0
52.161748568 1793.0
52.166672424 1857.0
52.171596280 1863.0
52.176520136 2056.0
52.181443992 2082.0
52.186367848 2089.0
52.191291704 2260.0
52.196215560 2514.0
52.201139416 2651.0
52.206063272 2813.0
52.210987128 2872.0
52.215910984 3074.0
52.220834840 3325.0
52.225758696 3455.0
52.230682552 3766.0
52.235606408 4027.0
52.240530264 4145.0
52.245454120 4305.0
52.250377977 4612.0
52.255301833 4750.0
52.260225689 4981.0
52.265149545 5046.0
52.270073401 5213.0
52.274997257 5415.0
52.279921113 5383.0
52.284844969 5315.0
52.289768825 5427.0
52.294692681 5445.0
52.299616537 5429.0
52.304540393 5339.0
52.309464249 5338.0
52.314388105 5274.0
52.319311961 5232.0
52.324235817 5234.0
52.329159673 5246.0
52.334083529 5270.0
52.339007385 5409.0
52.343931241 5411.0
52.348855097 5477.0
52.353778953 5659.0
52.358702809 5825.0
52.363626665 6242.0
52.368550521 6370.0
52.373474377 6491.0
52.378398233 6979.0
52.383322089 7578.0
52.388245945 8154.0
52.393169801 8698.0
52.398093657 9531.0
52.403017513 10344.0
52.407941369 11316.0
52.412865225 12359.0
52.417789081 13995.0
52.422712937 15446.0
52.427636793 17486.0
52.432560649 20086.0
52.437484505 23127.0
52.442408361 27023.0
52.447332217 31926.0
52.452256073 39436.0
52.457179929 49593.0
52.462103785 65242.0
52.467027641 88410.0
52.471951497 127546.0
52.476875353 185414.0
52.481799209 260219.0
52.486723065 325110.0
52.491646921 377004.0
52.496570777 410382.0
52.501494633 433232.0
52.506418489 447864.0
52.511342345 453261.0
52.516266201 450892.0
52.521190057 439110.0
52.526113913 413451.0
52.531037769 363415.0
52.535961625 295874.0
52.540885481 218465.0
52.545809337 160210.0
52.550733193 115685.0
52.555657049 87961.0
52.560580905 66819.0
52.565504761 53626.0
52.570428617 44876.0
52.575352473 39313.0
52.580276329 35929.0
52.585200185 34707.0
52.590124041 35078.0
52.595047897 37441.0
52.599971753 42496.0
52.604895609 50752.0
52.609819465 65551.0
52.614743321 86818.0
52.619667177 116066.0
52.624591033 147622.0
52.629514889 176102.0
52.634438745 197690.0
52.639362601 212954.0
52.644286457 222341.0
52.649210313 225106.0
52.654134169 225820.0
52.659058025 219358.0
52.663981881 209223.0
52.668905737 192228.0
52.673829593 164054.0
52.678753449 132205.0
52.683677305 100345.0
52.688601161 75050.0
52.693525017 54594.0
52.698448873 41645.0
52.703372729 32036.0
52.708296585 25713.0
52.713220441 20738.0
52.718144297 17573.0
52.723068153 14825.0
52.727992009 12981.0
52.732915865 11284.0
52.737839721 10481.0
52.742763577 9467.0
52.747687433 8727.0
52.752611290 7910.0
52.757535146 7312.0
52.762459002 6901.0
52.767382858 6373.0
52.772306714 6136.0
52.777230570 5757.0
52.782154426 5367.0
52.787078282 5063.0
52.792002138 4833.0
52.796925994 4629.0
52.801849850 4417.0
52.806773706 4219.0
52.811697562 4053.0
52.816621418 3919.0
52.821545274 3879.0
52.826469130 3500.0
52.831392986 3498.0
52.836316842 3308.0
52.841240698 3180.0
52.846164554 3100.0
52.851088410 3023.0
52.856012266 2995.0
52.860936122 2809.0
52.865859978 2793.0
52.870783834 2767.0
52.875707690 2520.0
52.880631546 2513.0
52.885555402 2507.0
52.890479258 2398.0
52.895403114 2345.0
52.900326970 2314.0
52.905250826 2196.0
52.910174682 2129.0
52.915098538 2100.0
52.920022394 2078.0
52.924946250 2061.0
52.929870106 2016.0
52.934793962 1908.0
52.939717818 1872.0
52.944641674 1789.0
52.949565530 1752.0
52.954489386 1736.0
52.959413242 1733.0
52.964337098 1712.0
52.969260954 1600.0
52.974184810 1595.0
52.979108666 1615.0
52.984032522 1479.0
52.988956378 1537.0
52.993880234 1427.0
52.998804090 1462.0
53.003727946 1407.0
53.008651802 1360.0
53.013575658 1347.0
53.018499514 1315.0
53.023423370 1298.0
53.028347226 1246.0
53.033271082 1261.0
53.038194938 1247.0
53.043118794 1222.0
53.048042650 1197.0
53.052966506 1196.0
53.057890362 1140.0
53.062814218 1126.0
53.067738074 1157.0
53.072661930 1107.0
53.077585786 1088.0
53.082509642 1050.0
53.087433498 1105.0
53.092357354 990.0
53.097281210 1028.0
53.102205066 988.0
53.107128922 1024.0
53.112052778 994.0
53.116976634 904.0
53.121900490 944.0
53.126824346 919.0
53.131748202 918.0
53.136672058 889.0
53.141595914 864.0
53.146519770 900.0
53.151443626 899.0
53.156367482 881.0
53.161291338 880.0
53.166215194 835.0
53.171139050 846.0
53.176062906 840.0
53.180986762 853.0
53.185910618 774.0
53.190834474 819.0
53.195758330 812.0
53.200682186 764.0
53.205606042 775.0
53.210529898 750.0
53.215453754 743.0
53.220377610 721.0
53.225301466 779.0
53.230225322 691.0
53.235149178 693.0
53.240073034 722.0
53.244996890 718.0
53.249920747 658.0
53.254844603 709.0
53.259768459 691.0
53.264692315 709.0
53.269616171 674.0
53.274540027 701.0
53.279463883 669.0
53.284387739 643.0
53.289311595 654.0
53.294235451 630.0
53.299159307 616.0
53.304083163 645.0
53.309007019 654.0
53.313930875 613.0
53.318854731 615.0
53.323778587 599.0
53.328702443 633.0
53.333626299 603.0
53.338550155 603.0
53.343474011 604.0
53.348397867 576.0
53.353321723 590.0
53.358245579 558.0
53.363169435 588.0
53.368093291 544.0
53.373017147 552.0
53.377941003 529.0
53.382864859 509.0
53.387788715 560.0
53.392712571 565.0
53.397636427 528.0
53.402560283 485.0
53.407484139 511.0
53.412407995 489.0
53.417331851 503.0
53.422255707 493.0
53.427179563 489.0
53.432103419 469.0
53.437027275 444.0
53.441951131 483.0
53.446874987 503.0
53.451798843 448.0
53.456722699 479.0
53.461646555 398.0
53.466570411 467.0
53.471494267 445.0
53.476418123 404.0
53.481341979 450.0
53.486265835 394.0
53.491189691 445.0
53.496113547 439.0
53.501037403 428.0
53.505961259 392.0
53.510885115 431.0
53.515808971 401.0
53.520732827 385.0
53.525656683 396.0
53.530580539 384.0
53.535504395 413.0
53.540428251 384.0
53.545352107 365.0
53.550275963 377.0
53.555199819 357.0
53.560123675 359.0
53.565047531 390.0
53.569971387 367.0
53.574895243 332.0
53.579819099 341.0
53.584742955 358.0
53.589666811 331.0
53.594590667 335.0
53.599514523 346.0
53.604438379 313.0
53.609362235 323.0
53.614286091 343.0
53.619209947 304.0
53.624133803 318.0
53.629057659 376.0
53.633981515 337.0
53.638905371 299.0
53.643829227 327.0
53.648753083 295.0
53.653676939 308.0
53.658600795 327.0
53.663524651 323.0
53.668448507 287.0
53.673372363 298.0
53.678296219 303.0
53.683220075 322.0
53.688143931 339.0
53.693067787 305.0
53.697991643 292.0
53.702915499 273.0
53.707839355 290.0
53.712763211 270.0
53.717687067 261.0
53.722610923 329.0
53.727534779 288.0
53.732458635 291.0
53.737382491 285.0
53.742306347 228.0
53.747230203 303.0
53.752154060 282.0
53.757077916 275.0
53.762001772 273.0
53.766925628 303.0
53.771849484 307.0
53.776773340 224.0
53.781697196 220.0
53.786621052 270.0
53.791544908 263.0
53.796468764 272.0
53.801392620 256.0
53.806316476 231.0
53.811240332 260.0
53.816164188 225.0
53.821088044 219.0
53.826011900 259.0
53.830935756 233.0
53.835859612 256.0
53.840783468 256.0
53.845707324 259.0
53.850631180 230.0
53.855555036 229.0
53.860478892 258.0
53.865402748 265.0
53.870326604 207.0
53.875250460 217.0
53.880174316 256.0
53.885098172 232.0
53.890022028 220.0
53.894945884 231.0
53.899869740 219.0
53.904793596 236.0
53.909717452 221.0
53.914641308 223.0
53.919565164 183.0
53.924489020 215.0
53.929412876 219.0
53.934336732 199.0
53.939260588 196.0
53.944184444 231.0
53.949108300 203.0
53.954032156 218.0
53.958956012 212.0
53.963879868 198.0
53.968803724 205.0
53.973727580 209.0
53.978651436 190.0
53.983575292 218.0
53.988499148 192.0
53.993423004 220.0
53.998346860 226.0
54.003270716 211.0
54.008194572 193.0
54.013118428 202.0
54.018042284 235.0
54.022966140 196.0
54.027889996 216.0
54.032813852 186.0
54.037737708 194.0
54.042661564 217.0
54.047585420 221.0
54.052509276 196.0
54.057433132 191.0
54.062356988 180.0
54.067280844 177.0
54.072204700 189.0
54.077128556 194.0
54.082052412 187.0
54.086976268 203.0
54.091900124 193.0
54.096823980 208.0
54.101747836 172.0
54.106671692 169.0
54.111595548 207.0
54.116519404 182.0
54.121443260 170.0
54.126367116 190.0
54.131290972 199.0
54.136214828 210.0
54.141138684 220.0
54.146062540 189.0
54.150986396 205.0
54.155910252 164.0
54.160834108 186.0
54.165757964 185.0
54.170681820 191.0
54.175605676 180.0
54.180529532 163.0
54.185453388 198.0
54.190377244 160.0
54.195301100 178.0
54.200224956 200.0
54.205148812 197.0
54.210072668 173.0
54.214996524 193.0
54.219920380 180.0
54.224844236 169.0
54.229768092 184.0
54.234691948 170.0
54.239615804 169.0
54.244539660 184.0
54.249463517 196.0
54.254387373 169.0
54.259311229 190.0
54.264235085 176.0
54.269158941 177.0
54.274082797 168.0
54.279006653 196.0
54.283930509 169.0
54.288854365 176.0
54.293778221 170.0
54.298702077 162.0
54.303625933 158.0
54.308549789 154.0
54.313473645 173.0
54.318397501 174.0
54.323321357 189.0
54.328245213 178.0
54.333169069 173.0
54.338092925 166.0
54.343016781 166.0
54.347940637 166.0
54.352864493 188.0
54.357788349 167.0
54.362712205 167.0
54.367636061 173.0
54.372559917 162.0
54.377483773 171.0
54.382407629 150.0
54.387331485 152.0
54.392255341 161.0
54.397179197 153.0
54.402103053 177.0
54.407026909 156.0
54.411950765 163.0
54.416874621 176.0
54.421798477 153.0
54.426722333 164.0
54.431646189 143.0
54.436570045 170.0
54.441493901 160.0
54.446417757 152.0
54.451341613 146.0
54.456265469 176.0
54.461189325 153.0
54.466113181 186.0
54.471037037 153.0
54.475960893 157.0
54.480884749 142.0
54.485808605 194.0
54.490732461 138.0
54.495656317 151.0
54.500580173 170.0
54.505504029 158.0
54.510427885 165.0
54.515351741 165.0
54.520275597 154.0
54.525199453 177.0
54.530123309 155.0
54.535047165 158.0
54.539971021 131.0
54.544894877 183.0
54.549818733 152.0
54.554742589 142.0
54.559666445 137.0
54.564590301 176.0
54.569514157 156.0
54.574438013 165.0
54.579361869 151.0
54.584285725 148.0
54.589209581 154.0
54.594133437 159.0
54.599057293 148.0
54.603981149 144.0
54.608905005 172.0
54.613828861 150.0
54.618752717 153.0
54.623676573 159.0
54.628600429 159.0
54.633524285 160.0
54.638448141 155.0
54.643371997 150.0
54.648295853 163.0
54.653219709 153.0
54.658143565 161.0
54.663067421 146.0
54.667991277 154.0
54.672915133 161.0
54.677838989 146.0
54.682762845 147.0
54.687686701 144.0
54.692610557 163.0
54.697534413 144.0
54.702458269 139.0
54.707382125 155.0
54.712305981 146.0
54.717229837 135.0
54.722153693 148.0
54.727077549 117.0
54.732001405 154.0
54.736925261 166.0
54.741849117 153.0
54.746772973 136.0
54.751696830 133.0
54.756620686 155.0
54.761544542 155.0
54.766468398 165.0
54.771392254 147.0
54.776316110 148.0
54.781239966 146.0
54.786163822 161.0
54.791087678 154.0
54.796011534 146.0
54.800935390 143.0
54.805859246 123.0
54.810783102 138.0
54.815706958 138.0
54.820630814 138.0
54.825554670 156.0
54.830478526 170.0
54.835402382 128.0
54.840326238 138.0
54.845250094 131.0
54.850173950 165.0
54.855097806 150.0
54.860021662 146.0
54.864945518 132.0
54.869869374 148.0
54.874793230 139.0
54.879717086 176.0
54.884640942 172.0
54.889564798 132.0
54.894488654 145.0
54.899412510 138.0
54.904336366 130.0
54.909260222 146.0
54.914184078 159.0
54.919107934 141.0
54.924031790 137.0
54.928955646 125.0
54.933879502 150.0
54.938803358 136.0
54.943727214 147.0
54.948651070 147.0
54.953574926 130.0
54.958498782 134.0
54.963422638 147.0
54.968346494 161.0
54.973270350 147.0
54.978194206 118.0
54.983118062 174.0
54.988041918 159.0
54.992965774 154.0
54.997889630 151.0
