30.002461930 46.0
30.007385786 66.0
30.012309642 52.0
30.017233498 42.0
30.022157354 48.0
30.027081210 42.0
30.032005066 58.0
30.036928922 43.0
30.041852778 48.0
30.046776634 48.0
30.051700490 44.0
30.056624346 60.0
30.061548202 50.0
30.066472058 56.0
30.071395914 44.0
30.076319770 41.0
30.081243626 50.0
30.086167482 51.0
30.091091338 43.0
30.096015194 58.0
30.100939050 61.0
30.105862906 45.0
30.110786762 47.0
30.115710618 55.0
30.120634474 38.0
30.125558330 41.0
30.130482186 50.0
30.135406042 53.0
30.140329898 57.0
30.145253754 55.0
30.150177610 60.0
30.155101466 48.0
30.160025322 52.0
30.164949178 52.0
30.169873034 49.0
30.174796890 64.0
30.179720746 58.0
30.184644602 59.0
30.189568458 51.0
30.194492314 59.0
30.199416170 39.0
30.204340026 54.0
30.209263882 51.0
30.214187738 40.0
30.219111594 49.0
30.224035450 56.0
30.228959306 54.0
30.233883162 54.0
30.238807018 52.0
30.243730874 64.0
30.248654730 59.0
30.253578587 46.0
30.258502443 52.0
30.263426299 66.0
30.268350155 64.0
30.273274011 58.0
30.278197867 59.0
30.283121723 54.0
30.288045579 54.0
30.292969435 51.0
30.297893291 55.0
30.302817147 50.0
30.307741003 48.0
30.312664859 48.0
30.317588715 54.0
30.322512571 44.0
30.327436427 49.0
30.332360283 52.0
30.337284139 47.0
30.342207995 50.0
30.347131851 49.0
30.352055707 43.0
30.356979563 57.0
30.361903419 56.0
30.366827275 55.0
30.371751131 51.0
30.376674987 62.0
30.381598843 52.0
30.386522699 56.0
30.391446555 55.0
30.396370411 40.0
30.401294267 45.0
30.406218123 43.0
30.411141979 57.0
30.416065835 56.0
30.420989691 44.0
30.425913547 65.0
30.430837403 54.0
30.435761259 50.0
30.440685115 56.0
30.445608971 49.0
30.450532827 74.0
30.455456683 76.0
30.460380539 62.0
30.465304395 51.0
30.470228251 56.0
30.475152107 49.0
30.480075963 54.0
30.484999819 47.0
30.489923675 65.0
30.494847531 54.0
30.499771387 53.0
30.504695243 47.0
30.509619099 55.0
30.514542955 44.0
30.519466811 60.0
30.524390667 71.0
30.529314523 46.0
30.534238379 53.0
30.539162235 57.0
30.544086091 47.0
30.549009947 52.0
30.553933803 62.0
30.558857659 51.0
30.563781515 52.0
30.568705371 68.0
30.573629227 65.0
30.578553083 56.0
30.583476939 75.0
30.588400795 52.0
30.593324651 70.0
30.598248507 50.0
30.603172363 65.0
30.608096219 64.0
30.613020075 59.0
30.617943931 53.0
30.622867787 50.0
30.627791643 53.0
30.632715499 42.0
30.637639355 54.0
30.642563211 49.0
30.647487067 52.0
30.652410923 38.0
30.657334779 53.0
30.662258635 55.0
30.667182491 45.0
30.672106347 55.0
30.677030203 52.0
30.681954059 52.0
30.686877915 54.0
30.691801771 53.0
30.696725627 47.0
30.701649483 49.0
30.706573339 51.0
30.711497195 51.0
30.716421051 60.0
30.721344907 59.0
30.726268763 62.0
30.731192619 46.0
30.736116475 52.0
30.741040331 61.0
30.745964187 42.0
30.750888043 50.0
30.755811900 67.0
30.760735756 57.0
30.765659612 52.0
30.770583468 52.0
30.775507324 52.0
30.780431180 64.0
30.785355036 44.0
30.790278892 52.0
30.795202748 57.0
30.800126604 58.0
30.805050460 39.0
30.809974316 58.0
30.814898172 55.0
30.819822028 56.0
30.824745884 61.0
30.829669740 51.0
30.834593596 52.0
30.839517452 50.0
30.844441308 53.0
30.849365164 53.0
30.854289020 50.0
30.859212876 55.0
30.864136732 53.0
30.869060588 59.0
30.873984444 59.0
30.878908300 66.0
30.883832156 52.0
30.888756012 58.0
30.893679868 53.0
30.898603724 55.0
30.903527580 51.0
30.908451436 67.0
30.913375292 63.0
30.918299148 63.0
30.923223004 63.0
30.928146860 60.0
30.933070716 60.0
30.937994572 49.0
30.942918428 55.0
30.947842284 54.0
30.952766140 42.0
30.957689996 47.0
30.962613852 44.0
30.967537708 51.0
30.972461564 45.0
30.977385420 50.0
30.982309276 62.0
30.987233132 48.0
30.992156988 60.0
30.997080844 56.0
31.002004700 69.0
31.006928556 63.0
31.011852412 55.0
31.016776268 44.0
31.021700124 58.0
31.026623980 59.0
31.031547836 57.0
31.036471692 63.0
31.041395548 45.0
31.046319404 45.0
31.051243260 54.0
31.056167116 62.0
31.061090972 56.0
31.066014828 66.0
31.070938684 57.0
31.075862540 39.0
31.080786396 56.0
31.085710252 52.0
31.090634108 60.0
31.095557964 53.0
31.100481820 51.0
31.105405676 60.0
31.110329532 57.0
31.115253388 49.0
31.120177244 44.0
31.125101100 57.0
31.130024956 58.0
31.134948812 46.0
31.139872668 58.0
31.144796524 45.0
31.149720380 47.0
31.154644236 60.0
31.159568092 49.0
31.164491948 55.0
31.169415804 41.0
31.174339660 57.0
31.179263516 53.0
31.184187372 42.0
31.189111228 57.0
31.194035084 65.0
31.198958940 52.0
31.203882796 53.0
31.208806652 75.0
31.213730508 58.0
31.218654364 52.0
31.223578220 48.0
31.228502076 75.0
31.233425932 55.0
31.238349788 51.0
31.243273644 47.0
31.248197500 57.0
31.253121357 53.0
31.258045213 55.0
31.262969069 52.0
31.267892925 61.0
31.272816781 40.0
31.277740637 44.0
31.282664493 58.0
31.287588349 58.0
31.292512205 47.0
31.297436061 46.0
31.302359917 48.0
31.307283773 64.0
31.312207629 47.0
31.317131485 60.0
31.322055341 56.0
31.326979197 54.0
31.331903053 70.0
31.336826909 67.0
31.341750765 60.0
31.346674621 47.0
31.351598477 45.0
31.356522333 63.0
31.361446189 49.0
31.366370045 56.0
31.371293901 55.0
31.376217757 58.0
31.381141613 59.0
31.386065469 57.0
31.390989325 69.0
31.395913181 63.0
31.400837037 47.0
31.405760893 40.0
31.410684749 49.0
31.415608605 43.0
31.420532461 60.0
31.425456317 43.0
31.430380173 55.0
31.435304029 52.0
31.440227885 66.0
31.445151741 48.0
31.450075597 34.0
31.454999453 50.0
31.459923309 45.0
31.464847165 65.0
31.469771021 55.0
31.474694877 44.0
31.479618733 52.0
31.484542589 52.0
31.489466445 40.0
31.494390301 50.0
31.499314157 60.0
31.504238013 50.0
31.509161869 60.0
31.514085725 46.0
31.519009581 50.0
31.523933437 59.0
31.528857293 51.0
31.533781149 40.0
31.538705005 40.0
31.543628861 75.0
31.548552717 54.0
31.553476573 57.0
31.558400429 48.0
31.563324285 52.0
31.568248141 58.0
31.573171997 57.0
31.578095853 58.0
31.583019709 52.0
31.587943565 54.0
31.592867421 53.0
31.597791277 48.0
31.602715133 60.0
31.607638989 50.0
31.612562845 60.0
31.617486701 66.0
31.622410557 42.0
31.627334413 53.0
31.632258269 46.0
31.637182125 57.0
31.642105981 45.0
31.647029837 42.0
31.651953693 49.0
31.656877549 57.0
31.661801405 56.0
31.666725261 52.0
31.671649117 72.0
31.676572973 60.0
31.681496829 58.0
31.686420685 60.0
31.691344541 46.0
31.696268397 52.0
31.701192253 62.0
31.706116109 53.0
31.711039965 55.0
31.715963821 45.0
31.720887677 51.0
31.725811533 56.0
31.730735389 58.0
31.735659245 61.0
31.740583101 55.0
31.745506957 71.0
31.750430813 61.0
31.755354670 39.0
31.760278526 54.0
31.765202382 58.0
31.770126238 58.0
31.775050094 66.0
31.779973950 47.0
31.784897806 59.0
31.789821662 59.0
31.794745518 59.0
31.799669374 43.0
31.804593230 52.0
31.809517086 45.0
31.814440942 48.0
31.819364798 53.0
31.824288654 58.0
31.829212510 50.0
31.834136366 61.0
31.839060222 58.0
31.843984078 40.0
31.848907934 56.0
31.853831790 55.0
31.858755646 50.0
31.863679502 45.0
31.868603358 54.0
31.873527214 38.0
31.878451070 44.0
31.883374926 59.0
31.888298782 59.0
31.893222638 51.0
31.898146494 61.0
31.903070350 37.0
31.907994206 45.0
31.912918062 61.0
31.917841918 54.0
31.922765774 60.0
31.927689630 52.0
31.932613486 40.0
31.937537342 51.0
31.942461198 60.0
31.947385054 56.0
31.952308910 52.0
31.957232766 50.0
31.962156622 55.0
31.967080478 54.0
31.972004334 51.0
31.976928190 63.0
31.981852046 54.0
31.986775902 58.0
31.991699758 44.0
31.996623614 40.0
32.001547470 59.0
32.006471326 69.0
32.011395182 48.0
32.016319038 57.0
32.021242894 53.0
32.026166750 63.0
32.031090606 54.0
32.036014462 51.0
32.040938318 42.0
32.045862174 55.0
32.050786030 50.0
32.055709886 57.0
32.060633742 54.0
32.065557598 44.0
32.070481454 43.0
32.075405310 55.0
32.080329166 48.0
32.085253022 56.0
32.090176878 52.0
32.095100734 59.0
32.100024590 53.0
32.104948446 72.0
32.109872302 51.0
32.114796158 41.0
32.119720014 31.0
32.124643870 60.0
32.129567726 42.0
32.134491582 61.0
32.139415438 48.0
32.144339294 38.0
32.149263150 47.0
32.154187006 55.0
32.159110862 55.0
32.164034718 53.0
32.168958574 56.0
32.173882430 53.0
32.178806286 47.0
32.183730142 55.0
32.188653998 59.0
32.193577854 56.0
32.198501710 57.0
32.203425566 60.0
32.208349422 53.0
32.213273278 51.0
32.218197134 53.0
32.223120990 52.0
32.228044846 44.0
32.232968702 57.0
32.237892558 61.0
32.242816414 63.0
32.247740270 53.0
32.252664127 51.0
32.257587983 63.0
32.262511839 58.0
32.267435695 56.0
32.272359551 56.0
32.277283407 44.0
32.282207263 48.0
32.287131119 57.0
32.292054975 59.0
32.296978831 65.0
32.301902687 38.0
32.306826543 51.0
32.311750399 59.0
32.316674255 58.0
32.321598111 58.0
32.326521967 50.0
32.331445823 64.0
32.336369679 62.0
32.341293535 62.0
32.346217391 43.0
32.351141247 54.0
32.356065103 52.0
32.360988959 56.0
32.365912815 70.0
32.370836671 57.0
32.375760527 61.0
32.380684383 62.0
32.385608239 80.0
32.390532095 55.0
32.395455951 53.0
32.400379807 60.0
32.405303663 52.0
32.410227519 55.0
32.415151375 68.0
32.420075231 55.0
32.424999087 58.0
32.429922943 76.0
32.434846799 63.0
32.439770655 66.0
32.444694511 49.0
32.449618367 58.0
32.454542223 48.0
32.459466079 60.0
32.464389935 55.0
32.469313791 49.0
32.474237647 44.0
32.479161503 48.0
32.484085359 51.0
32.489009215 66.0
32.493933071 47.0
32.498856927 46.0
32.503780783 62.0
32.508704639 66.0
32.513628495 46.0
32.518552351 56.0
32.523476207 44.0
32.528400063 61.0
32.533323919 58.0
32.538247775 57.0
32.543171631 46.0
32.548095487 48.0
32.553019343 56.0
32.557943199 58.0
32.562867055 63.0
32.567790911 62.0
32.572714767 58.0
32.577638623 55.0
32.582562479 53.0
32.587486335 46.0
32.592410191 59.0
32.597334047 56.0
32.602257903 38.0
32.607181759 65.0
32.612105615 54.0
32.617029471 47.0
32.621953327 61.0
32.626877183 53.0
32.631801039 71.0
32.636724895 41.0
32.641648751 55.0
32.646572607 43.0
32.651496463 47.0
32.656420319 50.0
32.661344175 54.0
32.666268031 49.0
32.671191887 46.0
32.676115743 48.0
32.681039599 58.0
32.685963455 54.0
32.690887311 55.0
32.695811167 68.0
32.700735023 57.0
32.705658879 59.0
32.710582735 62.0
32.715506591 53.0
32.720430447 47.0
32.725354303 49.0
32.730278159 65.0
32.735202015 53.0
32.740125871 54.0
32.745049727 49.0
32.749973583 58.0
32.754897440 57.0
32.759821296 54.0
32.764745152 42.0
32.769669008 52.0
32.774592864 59.0
32.779516720 55.0
32.784440576 47.0
32.789364432 48.0
32.794288288 51.0
32.799212144 54.0
32.804136000 60.0
32.809059856 45.0
32.813983712 46.0
32.818907568 49.0
32.823831424 69.0
32.828755280 45.0
32.833679136 43.0
32.838602992 50.0
32.843526848 53.0
32.848450704 57.0
32.853374560 58.0
32.858298416 55.0
32.863222272 57.0
32.868146128 45.0
32.873069984 59.0
32.877993840 46.0
32.882917696 51.0
32.887841552 47.0
32.892765408 68.0
32.897689264 46.0
32.902613120 58.0
32.907536976 45.0
32.912460832 49.0
32.917384688 52.0
32.922308544 63.0
32.927232400 59.0
32.932156256 51.0
32.937080112 60.0
32.942003968 49.0
32.946927824 53.0
32.951851680 47.0
32.956775536 60.0
32.961699392 51.0
32.966623248 52.0
32.971547104 59.0
32.976470960 51.0
32.981394816 49.0
32.986318672 64.0
32.991242528 49.0
32.996166384 42.0
33.001090240 51.0
33.006014096 60.0
33.010937952 47.0
33.015861808 56.0
33.020785664 63.0
33.025709520 49.0
33.030633376 61.0
33.035557232 51.0
33.040481088 72.0
33.045404944 52.0
33.050328800 42.0
33.055252656 45.0
33.060176512 54.0
33.065100368 66.0
33.070024224 58.0
33.074948080 61.0
33.079871936 69.0
33.084795792 54.0
33.089719648 49.0
33.094643504 51.0
33.099567360 60.0
33.104491216 38.0
33.109415072 48.0
33.114338928 50.0
33.119262784 41.0
33.124186640 52.0
33.129110496 51.0
33.134034352 49.0
33.138958208 49.0
33.143882064 47.0
33.148805920 57.0
33.153729776 46.0
33.158653632 49.0
33.163577488 54.0
33.168501344 54.0
33.173425200 61.0
33.178349056 51.0
33.183272912 48.0
33.188196768 56.0
33.193120624 48.0
33.198044480 40.0
33.202968336 60.0
33.207892192 63.0
33.212816048 54.0
33.217739904 67.0
33.222663760 57.0
33.227587616 48.0
33.232511472 53.0
33.237435328 55.0
33.242359184 54.0
33.247283040 46.0
33.252206897 56.0
33.257130753 61.0
33.262054609 43.0
33.266978465 33.0
33.271902321 42.0
33.276826177 60.0
33.281750033 61.0
33.286673889 61.0
33.291597745 58.0
33.296521601 55.0
33.301445457 55.0
33.306369313 56.0
33.311293169 42.0
33.316217025 53.0
33.321140881 56.0
33.326064737 65.0
33.330988593 38.0
33.335912449 53.0
33.340836305 56.0
33.345760161 50.0
33.350684017 59.0
33.355607873 50.0
33.360531729 63.0
33.365455585 51.0
33.370379441 58.0
33.375303297 48.0
33.380227153 63.0
33.385151009 65.0
33.390074865 51.0
33.394998721 50.0
33.399922577 38.0
33.404846433 43.0
33.409770289 53.0
33.414694145 59.0
33.419618001 55.0
33.424541857 52.0
33.429465713 56.0
33.434389569 56.0
33.439313425 42.0
33.444237281 62.0
33.449161137 48.0
33.454084993 46.0
33.459008849 59.0
33.463932705 47.0
33.468856561 67.0
33.473780417 42.0
33.478704273 37.0
33.483628129 53.0
33.488551985 66.0
33.493475841 50.0
33.498399697 70.0
33.503323553 55.0
33.508247409 41.0
33.513171265 54.0
33.518095121 48.0
33.523018977 53.0
33.527942833 55.0
33.532866689 55.0
33.537790545 58.0
33.542714401 52.0
33.547638257 43.0
33.552562113 68.0
33.557485969 59.0
33.562409825 46.0
33.567333681 60.0
33.572257537 46.0
33.577181393 59.0
33.582105249 51.0
33.587029105 48.0
33.591952961 63.0
33.596876817 51.0
33.601800673 48.0
33.606724529 47.0
33.611648385 42.0
33.616572241 46.0
33.621496097 56.0
33.626419953 45.0
33.631343809 61.0
33.636267665 56.0
33.641191521 60.0
33.646115377 48.0
33.651039233 67.0
33.655963089 60.0
33.660886945 53.0
33.665810801 54.0
33.670734657 67.0
33.675658513 50.0
33.680582369 52.0
33.685506225 54.0
33.690430081 44.0
33.695353937 62.0
33.700277793 58.0
33.705201649 68.0
33.710125505 68.0
33.715049361 48.0
33.719973217 56.0
33.724897073 58.0
33.729820929 50.0
33.734744785 63.0
33.739668641 59.0
33.744592497 51.0
33.749516353 53.0
33.754440210 56.0
33.759364066 49.0
33.764287922 59.0
33.769211778 76.0
33.774135634 54.0
33.779059490 67.0
33.783983346 64.0
33.788907202 51.0
33.793831058 70.0
33.798754914 58.0
33.803678770 56.0
33.808602626 63.0
33.813526482 65.0
33.818450338 69.0
33.823374194 52.0
33.828298050 66.0
33.833221906 56.0
33.838145762 80.0
33.843069618 55.0
33.847993474 58.0
33.852917330 68.0
33.857841186 68.0
33.862765042 65.0
33.867688898 63.0
33.872612754 75.0
33.877536610 55.0
33.882460466 68.0
33.887384322 60.0
33.892308178 73.0
33.897232034 90.0
33.902155890 62.0
33.907079746 93.0
33.912003602 86.0
33.916927458 114.0
33.921851314 133.0
33.926775170 148.0
33.931699026 161.0
33.936622882 282.0
33.941546738 371.0
33.946470594 492.0
33.951394450 644.0
33.956318306 792.0
33.961242162 981.0
33.966166018 996.0
33.971089874 920.0
33.976013730 891.0
33.980937586 776.0
33.985861442 611.0
33.990785298 496.0
33.995709154 385.0
34.000633010 308.0
34.005556866 262.0
34.010480722 216.0
34.015404578 155.0
34.020328434 169.0
34.025252290 123.0
34.030176146 121.0
34.035100002 111.0
34.040023858 114.0
34.044947714 86.0
34.049871570 101.0
34.054795426 99.0
34.059719282 77.0
34.064643138 83.0
34.069566994 77.0
34.074490850 77.0
34.079414706 72.0
34.084338562 63.0
34.089262418 73.0
34.094186274 80.0
34.099110130 84.0
34.104033986 64.0
34.108957842 77.0
34.113881698 70.0
34.118805554 53.0
34.123729410 73.0
34.128653266 60.0
34.133577122 59.0
34.138500978 63.0
34.143424834 63.0
34.148348690 55.0
34.153272546 74.0
34.158196402 66.0
34.163120258 70.0
34.168044114 68.0
34.172967970 67.0
34.177891826 62.0
34.182815682 64.0
34.187739538 64.0
34.192663394 55.0
34.197587250 59.0
34.202511106 69.0
34.207434962 64.0
34.212358818 56.0
34.217282674 71.0
34.222206530 66.0
34.227130386 57.0
34.232054242 58.0
34.236978098 52.0
34.241901954 62.0
34.246825810 46.0
34.251749667 69.0
34.256673523 75.0
34.261597379 53.0
34.266521235 64.0
34.271445091 55.0
34.276368947 63.0
34.281292803 66.0
34.286216659 81.0
34.291140515 55.0
34.296064371 64.0
34.300988227 71.0
34.305912083 70.0
34.310835939 43.0
34.315759795 57.0
34.320683651 73.0
34.325607507 61.0
34.330531363 66.0
34.335455219 59.0
34.340379075 56.0
34.345302931 52.0
34.350226787 53.0
34.355150643 69.0
34.360074499 67.0
34.364998355 73.0
34.369922211 55.0
34.374846067 74.0
34.379769923 52.0
34.384693779 67.0
34.389617635 62.0
34.394541491 71.0
34.399465347 53.0
34.404389203 56.0
34.409313059 64.0
34.414236915 65.0
34.419160771 58.0
34.424084627 55.0
34.429008483 67.0
34.433932339 66.0
34.438856195 55.0
34.443780051 44.0
34.448703907 51.0
34.453627763 65.0
34.458551619 63.0
34.463475475 46.0
34.468399331 54.0
34.473323187 71.0
34.478247043 68.0
34.483170899 66.0
34.488094755 62.0
34.493018611 59.0
34.497942467 46.0
34.502866323 58.0
34.507790179 57.0
34.512714035 58.0
34.517637891 57.0
34.522561747 62.0
34.527485603 69.0
34.532409459 74.0
34.537333315 68.0
34.542257171 54.0
34.547181027 64.0
34.552104883 53.0
34.557028739 52.0
34.561952595 73.0
34.566876451 63.0
34.571800307 67.0
34.576724163 62.0
34.581648019 51.0
34.586571875 60.0
34.591495731 75.0
34.596419587 76.0
34.601343443 52.0
34.606267299 71.0
34.611191155 74.0
34.616115011 62.0
34.621038867 55.0
34.625962723 62.0
34.630886579 56.0
34.635810435 65.0
34.640734291 65.0
34.645658147 55.0
34.650582003 52.0
34.655505859 58.0
34.660429715 67.0
34.665353571 52.0
34.670277427 57.0
34.675201283 53.0
34.680125139 53.0
34.685048995 49.0
34.689972851 54.0
34.694896707 65.0
34.699820563 74.0
34.704744419 59.0
34.709668275 53.0
34.714592131 54.0
34.719515987 60.0
34.724439843 65.0
34.729363699 53.0
34.734287555 63.0
34.739211411 53.0
34.744135267 66.0
34.749059123 56.0
34.753982980 53.0
34.758906836 56.0
34.763830692 54.0
34.768754548 55.0
34.773678404 64.0
34.778602260 62.0
34.783526116 72.0
34.788449972 55.0
34.793373828 59.0
34.798297684 48.0
34.803221540 60.0
34.808145396 57.0
34.813069252 48.0
34.817993108 57.0
34.822916964 51.0
34.827840820 68.0
34.832764676 52.0
34.837688532 70.0
34.842612388 41.0
34.847536244 68.0
34.852460100 62.0
34.857383956 61.0
34.862307812 62.0
34.867231668 60.0
34.872155524 65.0
34.877079380 75.0
34.882003236 59.0
34.886927092 65.0
34.891850948 59.0
34.896774804 64.0
34.901698660 68.0
34.906622516 56.0
34.911546372 75.0
34.916470228 64.0
34.921394084 65.0
34.926317940 59.0
34.931241796 72.0
34.936165652 50.0
34.941089508 64.0
34.946013364 58.0
34.950937220 71.0
34.955861076 57.0
34.960784932 60.0
34.965708788 64.0
34.970632644 69.0
34.975556500 69.0
34.980480356 75.0
34.985404212 67.0
34.990328068 79.0
34.995251924 67.0
35.000175780 63.0
35.005099636 66.0
35.010023492 50.0
35.014947348 62.0
35.019871204 58.0
35.024795060 66.0
35.029718916 62.0
35.034642772 63.0
35.039566628 62.0
35.044490484 54.0
35.049414340 57.0
35.054338196 75.0
35.059262052 51.0
35.064185908 59.0
35.069109764 55.0
35.074033620 86.0
35.078957476 60.0
35.083881332 61.0
35.088805188 66.0
35.093729044 70.0
35.098652900 55.0
35.103576756 65.0
35.108500612 61.0
35.113424468 68.0
35.118348324 61.0
35.123272180 56.0
35.128196036 68.0
35.133119892 62.0
35.138043748 63.0
35.142967604 53.0
35.147891460 59.0
35.152815316 52.0
35.157739172 66.0
35.162663028 63.0
35.167586884 65.0
35.172510740 58.0
35.177434596 67.0
35.182358452 64.0
35.187282308 64.0
35.192206164 56.0
35.197130020 56.0
35.202053876 62.0
35.206977732 53.0
35.211901588 63.0
35.216825444 56.0
35.221749300 71.0
35.226673156 52.0
35.231597012 71.0
35.236520868 55.0
35.241444724 78.0
35.246368580 59.0
35.251292437 57.0
35.256216293 62.0
35.261140149 57.0
35.266064005 61.0
35.270987861 52.0
35.275911717 58.0
35.280835573 66.0
35.285759429 61.0
35.290683285 65.0
35.295607141 48.0
35.300530997 74.0
35.305454853 64.0
35.310378709 66.0
35.315302565 76.0
35.320226421 73.0
35.325150277 67.0
35.330074133 47.0
35.334997989 71.0
35.339921845 53.0
35.344845701 63.0
35.349769557 55.0
35.354693413 49.0
35.359617269 54.0
35.364541125 61.0
35.369464981 73.0
35.374388837 58.0
35.379312693 63.0
35.384236549 58.0
35.389160405 70.0
35.394084261 72.0
35.399008117 57.0
35.403931973 66.0
35.408855829 49.0
35.413779685 71.0
35.418703541 60.0
35.423627397 55.0
35.428551253 49.0
35.433475109 69.0
35.438398965 59.0
35.443322821 56.0
35.448246677 67.0
35.453170533 62.0
35.458094389 66.0
35.463018245 62.0
35.467942101 75.0
35.472865957 70.0
35.477789813 63.0
35.482713669 54.0
35.487637525 71.0
35.492561381 62.0
35.497485237 64.0
35.502409093 63.0
35.507332949 59.0
35.512256805 64.0
35.517180661 58.0
35.522104517 60.0
35.527028373 63.0
35.531952229 67.0
35.536876085 71.0
35.541799941 52.0
35.546723797 74.0
35.551647653 56.0
35.556571509 60.0
35.561495365 64.0
35.566419221 53.0
35.571343077 56.0
35.576266933 76.0
35.581190789 62.0
35.586114645 71.0
35.591038501 57.0
35.595962357 63.0
35.600886213 62.0
35.605810069 69.0
35.610733925 71.0
35.615657781 51.0
35.620581637 49.0
35.625505493 62.0
35.630429349 58.0
35.635353205 61.0
35.640277061 55.0
35.645200917 66.0
35.650124773 57.0
35.655048629 51.0
35.659972485 67.0
35.664896341 66.0
35.669820197 74.0
35.674744053 59.0
35.679667909 54.0
35.684591765 54.0
35.689515621 57.0
35.694439477 59.0
35.699363333 85.0
35.704287189 52.0
35.709211045 63.0
35.714134901 60.0
35.719058757 53.0
35.723982613 47.0
35.728906469 61.0
35.733830325 62.0
35.738754181 64.0
35.743678037 77.0
35.748601893 67.0
35.753525750 63.0
35.758449606 65.0
35.763373462 57.0
35.768297318 65.0
35.773221174 51.0
35.778145030 67.0
35.783068886 65.0
35.787992742 70.0
35.792916598 61.0
35.797840454 76.0
35.802764310 70.0
35.807688166 64.0
35.812612022 66.0
35.817535878 75.0
35.822459734 64.0
35.827383590 61.0
35.832307446 59.0
35.837231302 67.0
35.842155158 77.0
35.847079014 90.0
35.852002870 62.0
35.856926726 71.0
35.861850582 63.0
35.866774438 69.0
35.871698294 68.0
35.876622150 77.0
35.881546006 62.0
35.886469862 69.0
35.891393718 71.0
35.896317574 65.0
35.901241430 71.0
35.906165286 66.0
35.911089142 93.0
35.916012998 60.0
35.920936854 70.0
35.925860710 66.0
35.930784566 66.0
35.935708422 52.0
35.940632278 72.0
35.945556134 65.0
35.950479990 54.0
35.955403846 66.0
35.960327702 69.0
35.965251558 57.0
35.970175414 68.0
35.975099270 67.0
35.980023126 51.0
35.984946982 50.0
35.989870838 62.0
35.994794694 78.0
35.999718550 70.0
36.004642406 95.0
36.009566262 72.0
36.014490118 65.0
36.019413974 75.0
36.024337830 66.0
36.029261686 72.0
36.034185542 68.0
36.039109398 73.0
36.044033254 90.0
36.048957110 68.0
36.053880966 77.0
36.058804822 71.0
36.063728678 74.0
36.068652534 86.0
36.073576390 97.0
36.078500246 93.0
36.083424102 99.0
36.088347958 108.0
36.093271814 80.0
36.098195670 97.0
36.103119526 90.0
36.108043382 101.0
36.112967238 100.0
36.117891094 88.0
36.122814950 86.0
36.127738806 105.0
36.132662662 78.0
36.137586518 77.0
36.142510374 70.0
36.147434230 77.0
36.152358086 78.0
36.157281942 83.0
36.162205798 75.0
36.167129654 68.0
36.172053510 90.0
36.176977366 76.0
36.181901222 84.0
36.186825078 79.0
36.191748934 91.0
36.196672790 75.0
36.201596646 73.0
36.206520502 61.0
36.211444358 74.0
36.216368214 81.0
36.221292070 62.0
36.226215926 70.0
36.231139782 68.0
36.236063638 74.0
36.240987494 60.0
36.245911350 71.0
36.250835207 59.0
36.255759063 63.0
36.260682919 70.0
36.265606775 89.0
36.270530631 65.0
36.275454487 89.0
36.280378343 82.0
36.285302199 87.0
36.290226055 68.0
36.295149911 76.0
36.300073767 84.0
36.304997623 62.0
36.309921479 81.0
36.314845335 80.0
36.319769191 77.0
36.324693047 73.0
36.329616903 75.0
36.334540759 81.0
36.339464615 86.0
36.344388471 70.0
36.349312327 91.0
36.354236183 82.0
36.359160039 99.0
36.364083895 93.0
36.369007751 92.0
36.373931607 80.0
36.378855463 87.0
36.383779319 96.0
36.388703175 89.0
36.393627031 108.0
36.398550887 95.0
36.403474743 88.0
36.408398599 81.0
36.413322455 100.0
36.418246311 102.0
36.423170167 92.0
36.428094023 77.0
36.433017879 88.0
36.437941735 96.0
36.442865591 84.0
36.447789447 86.0
36.452713303 98.0
36.457637159 87.0
36.462561015 82.0
36.467484871 80.0
36.472408727 69.0
36.477332583 108.0
36.482256439 73.0
36.487180295 86.0
36.492104151 78.0
36.497028007 102.0
36.501951863 93.0
36.506875719 71.0
36.511799575 98.0
36.516723431 83.0
36.521647287 80.0
36.526571143 85.0
36.531494999 89.0
36.536418855 91.0
36.541342711 100.0
36.546266567 81.0
36.551190423 112.0
36.556114279 94.0
36.561038135 114.0
36.565961991 86.0
36.570885847 104.0
36.575809703 99.0
36.580733559 99.0
36.585657415 93.0
36.590581271 102.0
36.595505127 116.0
36.600428983 110.0
36.605352839 112.0
36.610276695 112.0
36.615200551 109.0
36.620124407 108.0
36.625048263 112.0
36.629972119 86.0
36.634895975 116.0
36.639819831 101.0
36.644743687 118.0
36.649667543 122.0
36.654591399 126.0
36.659515255 122.0
36.664439111 113.0
36.669362967 113.0
36.674286823 116.0
36.679210679 121.0
36.684134535 126.0
36.689058391 116.0
36.693982247 117.0
36.698906103 133.0
36.703829959 126.0
36.708753815 113.0
36.713677671 108.0
36.718601527 113.0
36.723525383 136.0
36.728449239 140.0
36.733373095 136.0
36.738296951 103.0
36.743220807 139.0
36.748144663 123.0
36.753068520 135.0
36.757992376 145.0
36.762916232 130.0
36.767840088 155.0
36.772763944 144.0
36.777687800 125.0
36.782611656 143.0
36.787535512 128.0
36.792459368 134.0
36.797383224 154.0
36.802307080 142.0
36.807230936 169.0
36.812154792 160.0
36.817078648 125.0
36.822002504 146.0
36.826926360 132.0
36.831850216 147.0
36.836774072 154.0
36.841697928 142.0
36.846621784 137.0
36.851545640 152.0
36.856469496 163.0
36.861393352 145.0
36.866317208 158.0
36.871241064 145.0
36.876164920 150.0
36.881088776 171.0
36.886012632 173.0
36.890936488 157.0
36.895860344 154.0
36.900784200 149.0
36.905708056 179.0
36.910631912 154.0
36.915555768 154.0
36.920479624 158.0
36.925403480 162.0
36.930327336 169.0
36.935251192 193.0
36.940175048 170.0
36.945098904 183.0
36.950022760 180.0
36.954946616 192.0
36.959870472 192.0
36.964794328 205.0
36.969718184 182.0
36.974642040 170.0
36.979565896 176.0
36.984489752 163.0
36.989413608 194.0
36.994337464 194.0
36.999261320 197.0
37.004185176 191.0
37.009109032 205.0
37.014032888 207.0
37.018956744 197.0
37.023880600 188.0
37.028804456 183.0
37.033728312 206.0
37.038652168 262.0
37.043576024 255.0
37.048499880 274.0
37.053423736 263.0
37.058347592 193.0
37.063271448 269.0
37.068195304 210.0
37.073119160 212.0
37.078043016 257.0
37.082966872 301.0
37.087890728 280.0
37.092814584 260.0
37.097738440 206.0
37.102662296 299.0
37.107586152 315.0
37.112510008 280.0
37.117433864 269.0
37.122357720 307.0
37.127281576 274.0
37.132205432 301.0
37.137129288 292.0
37.142053144 292.0
37.146977000 281.0
37.151900856 310.0
37.156824712 349.0
37.161748568 310.0
37.166672424 319.0
37.171596280 318.0
37.176520136 330.0
37.181443992 320.0
37.186367848 324.0
37.191291704 309.0
37.196215560 327.0
37.201139416 322.0
37.206063272 287.0
37.210987128 313.0
37.215910984 316.0
37.220834840 350.0
37.225758696 343.0
37.230682552 381.0
37.235606408 314.0
37.240530264 351.0
37.245454120 352.0
37.250377977 368.0
37.255301833 360.0
37.260225689 375.0
37.265149545 377.0
37.270073401 379.0
37.274997257 390.0
37.279921113 389.0
37.284844969 394.0
37.289768825 383.0
37.294692681 405.0
37.299616537 420.0
37.304540393 402.0
37.309464249 418.0
37.314388105 480.0
37.319311961 459.0
37.324235817 435.0
37.329159673 467.0
37.334083529 462.0
37.339007385 495.0
37.343931241 468.0
37.348855097 526.0
37.353778953 506.0
37.358702809 493.0
37.363626665 523.0
37.368550521 512.0
37.373474377 510.0
37.378398233 521.0
37.383322089 523.0
37.388245945 562.0
37.393169801 583.0
37.398093657 566.0
37.403017513 526.0
37.407941369 609.0
37.412865225 602.0
37.417789081 657.0
37.422712937 641.0
37.427636793 686.0
37.432560649 662.0
37.437484505 633.0
37.442408361 675.0
37.447332217 689.0
37.452256073 721.0
37.457179929 768.0
37.462103785 767.0
37.467027641 785.0
37.471951497 797.0
37.476875353 857.0
37.481799209 823.0
37.486723065 828.0
37.491646921 970.0
37.496570777 1017.0
37.501494633 1090.0
37.506418489 1155.0
37.511342345 1314.0
37.516266201 1441.0
37.521190057 1621.0
37.526113913 1741.0
37.531037769 1817.0
37.535961625 2040.0
37.540885481 2218.0
37.545809337 2382.0
37.550733193 2515.0
37.555657049 2654.0
37.560580905 2678.0
37.565504761 2737.0
37.570428617 2763.0
37.575352473 2708.0
37.580276329 2616.0
37.585200185 2668.0
37.590124041 2613.0
37.595047897 2527.0
37.599971753 2488.0
37.604895609 2572.0
37.609819465 2713.0
37.614743321 2692.0
37.619667177 2832.0
37.624591033 3075.0
37.629514889 3349.0
37.634438745 3648.0
37.639362601 3918.0
37.644286457 4408.0
37.649210313 4923.0
37.654134169 5728.0
37.659058025 6606.0
37.663981881 7783.0
37.668905737 9209.0
37.673829593 11200.0
37.678753449 13945.0
37.683677305 18398.0
37.688601161 24289.0
37.693525017 35273.0
37.698448873 54687.0
37.703372729 93492.0
37.708296585 156280.0
37.713220441 222123.0
37.718144297 265207.0
37.723068153 279739.0
37.727992009 275147.0
37.732915865 245684.0
37.737839721 192014.0
37.742763577 128570.0
37.747687433 80064.0
37.752611290 51481.0
37.757535146 34506.0
37.762459002 24975.0
37.767382858 19652.0
37.772306714 17136.0
37.777230570 16088.0
37.782154426 17174.0
37.787078282 19966.0
37.792002138 25702.0
37.796925994 37311.0
37.801849850 57691.0
37.806773706 87721.0
37.811697562 114502.0
37.816621418 132454.0
37.821545274 137997.0
37.826469130 133046.0
37.831392986 115946.0
37.836316842 89722.0
37.841240698 62386.0
37.846164554 39848.0
37.851088410 26160.0
37.856012266 17677.0
37.860936122 12987.0
37.865859978 9696.0
37.870783834 7905.0
37.875707690 6377.0
37.880631546 5509.0
37.885555402 4699.0
37.890479258 4298.0
37.895403114 3674.0
37.900326970 3436.0
37.905250826 3113.0
37.910174682 2820.0
37.915098538 2717.0
37.920022394 2514.0
37.924946250 2263.0
37.929870106 2169.0
37.934793962 2074.0
37.939717818 1833.0
37.944641674 1749.0
37.949565530 1723.0
37.954489386 1582.0
37.959413242 1550.0
37.964337098 1481.0
37.969260954 1404.0
37.974184810 1377.0
37.979108666 1322.0
37.984032522 1240.0
37.988956378 1281.0
37.993880234 1151.0
37.998804090 1076.0
38.003727946 1094.0
38.008651802 1025.0
38.013575658 1093.0
38.018499514 953.0
38.023423370 955.0
38.028347226 919.0
38.033271082 924.0
38.038194938 842.0
38.043118794 874.0
38.048042650 813.0
38.052966506 809.0
38.057890362 779.0
38.062814218 719.0
38.067738074 737.0
38.072661930 727.0
38.077585786 774.0
38.082509642 735.0
38.087433498 666.0
38.092357354 686.0
38.097281210 673.0
38.102205066 623.0
38.107128922 664.0
38.112052778 688.0
38.116976634 624.0
38.121900490 581.0
38.126824346 551.0
38.131748202 577.0
38.136672058 607.0
38.141595914 531.0
38.146519770 517.0
38.151443626 575.0
38.156367482 529.0
38.161291338 517.0
38.166215194 502.0
38.171139050 528.0
38.176062906 471.0
38.180986762 460.0
38.185910618 455.0
38.190834474 440.0
38.195758330 457.0
38.200682186 441.0
38.205606042 445.0
38.210529898 405.0
38.215453754 434.0
38.220377610 409.0
38.225301466 394.0
38.230225322 435.0
38.235149178 344.0
38.240073034 373.0
38.244996890 361.0
38.249920747 338.0
38.254844603 328.0
38.259768459 338.0
38.264692315 359.0
38.269616171 323.0
38.274540027 344.0
38.279463883 327.0
38.284387739 293.0
38.289311595 345.0
38.294235451 302.0
38.299159307 338.0
38.304083163 317.0
38.309007019 293.0
38.313930875 257.0
38.318854731 256.0
38.323778587 281.0
38.328702443 257.0
38.333626299 210.0
38.338550155 282.0
38.343474011 287.0
38.348397867 274.0
38.353321723 271.0
38.358245579 261.0
38.363169435 273.0
38.368093291 214.0
38.373017147 212.0
38.377941003 199.0
38.382864859 199.0
38.387788715 211.0
38.392712571 196.0
38.397636427 206.0
38.402560283 170.0
38.407484139 186.0
38.412407995 172.0
38.417331851 175.0
38.422255707 170.0
38.427179563 182.0
38.432103419 178.0
38.437027275 178.0
38.441951131 174.0
38.446874987 181.0
38.451798843 161.0
38.456722699 188.0
38.461646555 169.0
38.466570411 151.0
38.471494267 176.0
38.476418123 156.0
38.481341979 153.0
38.486265835 114.0
38.491189691 149.0
38.496113547 160.0
38.501037403 148.0
38.505961259 175.0
38.510885115 134.0
38.515808971 147.0
38.520732827 149.0
38.525656683 155.0
38.530580539 144.0
38.535504395 143.0
38.540428251 165.0
38.545352107 147.0
38.550275963 157.0
38.555199819 135.0
38.560123675 134.0
38.565047531 155.0
38.569971387 141.0
38.574895243 110.0
38.579819099 120.0
38.584742955 149.0
38.589666811 134.0
38.594590667 129.0
38.599514523 145.0
38.604438379 148.0
38.609362235 131.0
38.614286091 138.0
38.619209947 130.0
38.624133803 113.0
38.629057659 126.0
38.633981515 125.0
38.638905371 111.0
38.643829227 146.0
38.648753083 134.0
38.653676939 127.0
38.658600795 111.0
38.663524651 112.0
38.668448507 121.0
38.673372363 112.0
38.678296219 109.0
38.683220075 87.0
38.688143931 117.0
38.693067787 115.0
38.697991643 108.0
38.702915499 110.0
38.707839355 110.0
38.712763211 110.0
38.717687067 112.0
38.722610923 96.0
38.727534779 115.0
38.732458635 105.0
38.737382491 117.0
38.742306347 113.0
38.747230203 126.0
38.752154060 90.0
38.757077916 101.0
38.762001772 87.0
38.766925628 127.0
38.771849484 100.0
38.776773340 81.0
38.781697196 106.0
38.786621052 106.0
38.791544908 82.0
38.796468764 93.0
38.801392620 101.0
38.806316476 117.0
38.811240332 101.0
38.816164188 85.0
38.821088044 103.0
38.826011900 103.0
38.830935756 78.0
38.835859612 109.0
38.840783468 93.0
38.845707324 92.0
38.850631180 103.0
38.855555036 89.0
38.860478892 94.0
38.865402748 98.0
38.870326604 80.0
38.875250460 83.0
38.880174316 83.0
38.885098172 95.0
38.890022028 97.0
38.894945884 84.0
38.899869740 90.0
38.904793596 82.0
38.909717452 94.0
38.914641308 88.0
38.919565164 80.0
38.924489020 82.0
38.929412876 91.0
38.934336732 91.0
38.939260588 91.0
38.944184444 80.0
38.949108300 94.0
38.954032156 89.0
38.958956012 79.0
38.963879868 74.0
38.968803724 91.0
38.973727580 76.0
38.978651436 98.0
38.983575292 82.0
38.988499148 94.0
38.993423004 85.0
38.998346860 73.0
39.003270716 96.0
39.008194572 87.0
39.013118428 87.0
39.018042284 90.0
39.022966140 96.0
39.027889996 84.0
39.032813852 77.0
39.037737708 81.0
39.042661564 90.0
39.047585420 77.0
39.052509276 86.0
39.057433132 77.0
39.062356988 84.0
39.067280844 92.0
39.072204700 104.0
39.077128556 88.0
39.082052412 79.0
39.086976268 90.0
39.091900124 81.0
39.096823980 76.0
39.101747836 76.0
39.106671692 55.0
39.111595548 79.0
39.116519404 90.0
39.121443260 81.0
39.126367116 77.0
39.131290972 76.0
39.136214828 91.0
39.141138684 82.0
39.146062540 82.0
39.150986396 77.0
39.155910252 64.0
39.160834108 73.0
39.165757964 66.0
39.170681820 89.0
39.175605676 79.0
39.180529532 66.0
39.185453388 82.0
39.190377244 85.0
39.195301100 58.0
39.200224956 67.0
39.205148812 68.0
39.210072668 81.0
39.214996524 79.0
39.219920380 74.0
39.224844236 68.0
39.229768092 84.0
39.234691948 74.0
39.239615804 80.0
39.244539660 84.0
39.249463517 60.0
39.254387373 72.0
39.259311229 92.0
39.264235085 70.0
39.269158941 76.0
39.274082797 60.0
39.279006653 71.0
39.283930509 66.0
39.288854365 67.0
39.293778221 65.0
39.298702077 78.0
39.303625933 83.0
39.308549789 69.0
39.313473645 67.0
39.318397501 63.0
39.323321357 60.0
39.328245213 74.0
39.333169069 71.0
39.338092925 62.0
39.343016781 64.0
39.347940637 82.0
39.352864493 74.0
39.357788349 61.0
39.362712205 67.0
39.367636061 68.0
39.372559917 60.0
39.377483773 71.0
39.382407629 64.0
39.387331485 66.0
39.392255341 79.0
39.397179197 58.0
39.402103053 57.0
39.407026909 71.0
39.411950765 69.0
39.416874621 67.0
39.421798477 76.0
39.426722333 69.0
39.431646189 75.0
39.436570045 77.0
39.441493901 73.0
39.446417757 66.0
39.451341613 66.0
39.456265469 69.0
39.461189325 83.0
39.466113181 79.0
39.471037037 68.0
39.475960893 50.0
39.480884749 92.0
39.485808605 76.0
39.490732461 64.0
39.495656317 77.0
39.500580173 75.0
39.505504029 69.0
39.510427885 82.0
39.515351741 67.0
39.520275597 77.0
39.525199453 73.0
39.530123309 68.0
39.535047165 58.0
39.539971021 76.0
39.544894877 70.0
39.549818733 78.0
39.554742589 67.0
39.559666445 69.0
39.564590301 63.0
39.569514157 63.0
39.574438013 70.0
39.579361869 53.0
39.584285725 77.0
39.589209581 75.0
39.594133437 78.0
39.599057293 67.0
39.603981149 72.0
39.608905005 72.0
39.613828861 66.0
39.618752717 73.0
39.623676573 65.0
39.628600429 83.0
39.633524285 63.0
39.638448141 70.0
39.643371997 63.0
39.648295853 58.0
39.653219709 65.0
39.658143565 76.0
39.663067421 72.0
39.667991277 67.0
39.672915133 66.0
39.677838989 66.0
39.682762845 53.0
39.687686701 72.0
39.692610557 68.0
39.697534413 82.0
39.702458269 66.0
39.707382125 57.0
39.712305981 55.0
39.717229837 59.0
39.722153693 63.0
39.727077549 70.0
39.732001405 75.0
39.736925261 72.0
39.741849117 69.0
39.746772973 63.0
39.751696830 68.0
39.756620686 51.0
39.761544542 63.0
39.766468398 62.0
39.771392254 69.0
39.776316110 71.0
39.781239966 65.0
39.786163822 71.0
39.791087678 51.0
39.796011534 78.0
39.800935390 72.0
39.805859246 61.0
39.810783102 70.0
39.815706958 58.0
39.820630814 67.0
39.825554670 64.0
39.830478526 66.0
39.835402382 69.0
39.840326238 65.0
39.845250094 61.0
39.850173950 61.0
39.855097806 62.0
39.860021662 64.0
39.864945518 57.0
39.869869374 67.0
39.874793230 53.0
39.879717086 69.0
39.884640942 56.0
39.889564798 63.0
39.894488654 70.0
39.899412510 68.0
39.904336366 63.0
39.909260222 73.0
39.914184078 73.0
39.919107934 62.0
39.924031790 75.0
39.928955646 63.0
39.933879502 73.0
39.938803358 67.0
39.943727214 54.0
39.948651070 61.0
39.953574926 58.0
39.958498782 69.0
39.963422638 66.0
39.968346494 70.0
39.973270350 63.0
39.978194206 75.0
39.983118062 56.0
39.988041918 60.0
39.992965774 62.0
39.997889630 68.0
