45.002461930 139.0
45.007385786 100.0
45.012309642 113.0
45.017233498 127.0
45.022157354 106.0
45.027081210 137.0
45.032005066 114.0
45.036928922 90.0
45.041852778 117.0
45.046776634 106.0
45.051700490 131.0
45.056624346 113.0
45.061548202 125.0
45.066472058 120.0
45.071395914 128.0
45.076319770 114.0
45.081243626 127.0
45.086167482 99.0
45.091091338 118.0
45.096015194 109.0
45.100939050 111.0
45.105862906 130.0
45.110786762 131.0
45.115710618 114.0
45.120634474 116.0
45.125558330 105.0
45.130482186 120.0
45.135406042 99.0
45.140329898 131.0
45.145253754 113.0
45.150177610 102.0
45.155101466 88.0
45.160025322 118.0
45.164949178 109.0
45.169873034 114.0
45.174796890 123.0
45.179720746 120.0
45.184644602 115.0
45.189568458 98.0
45.194492314 106.0
45.199416170 123.0
45.204340026 129.0
45.209263882 104.0
45.214187738 113.0
45.219111594 105.0
45.224035450 106.0
45.228959306 128.0
45.233883162 114.0
45.238807018 102.0
45.243730874 105.0
45.248654730 124.0
45.253578587 134.0
45.258502443 121.0
45.263426299 96.0
45.268350155 127.0
45.273274011 112.0
45.278197867 120.0
45.283121723 109.0
45.288045579 106.0
45.292969435 93.0
45.297893291 117.0
45.302817147 103.0
45.307741003 113.0
45.312664859 120.0
45.317588715 110.0
45.322512571 102.0
45.327436427 123.0
45.332360283 92.0
45.337284139 98.0
45.342207995 99.0
45.347131851 112.0
45.352055707 99.0
45.356979563 126.0
45.361903419 99.0
45.366827275 117.0
45.371751131 105.0
45.376674987 113.0
45.381598843 118.0
45.386522699 116.0
45.391446555 121.0
45.396370411 96.0
45.401294267 107.0
45.406218123 138.0
45.411141979 126.0
45.416065835 102.0
45.420989691 111.0
45.425913547 108.0
45.430837403 104.0
45.435761259 98.0
45.440685115 102.0
45.445608971 107.0
45.450532827 127.0
45.455456683 109.0
45.460380539 93.0
45.465304395 105.0
45.470228251 103.0
45.475152107 117.0
45.480075963 129.0
45.484999819 98.0
45.489923675 101.0
45.494847531 111.0
45.499771387 103.0
45.504695243 112.0
45.509619099 102.0
45.514542955 114.0
45.519466811 96.0
45.524390667 119.0
45.529314523 112.0
45.534238379 104.0
45.539162235 117.0
45.544086091 101.0
45.549009947 112.0
45.553933803 126.0
45.558857659 115.0
45.563781515 115.0
45.568705371 118.0
45.573629227 118.0
45.578553083 107.0
45.583476939 103.0
45.588400795 103.0
45.593324651 108.0
45.598248507 125.0
45.603172363 118.0
45.608096219 102.0
45.613020075 102.0
45.617943931 109.0
45.622867787 105.0
45.627791643 112.0
45.632715499 111.0
45.637639355 103.0
45.642563211 114.0
45.647487067 111.0
45.652410923 109.0
45.657334779 112.0
45.662258635 126.0
45.667182491 124.0
45.672106347 98.0
45.677030203 133.0
45.681954059 100.0
45.686877915 107.0
45.691801771 115.0
45.696725627 118.0
45.701649483 104.0
45.706573339 108.0
45.711497195 107.0
45.716421051 105.0
45.721344907 109.0
45.726268763 133.0
45.731192619 134.0
45.736116475 119.0
45.741040331 123.0
45.745964187 118.0
45.750888043 108.0
45.755811900 110.0
45.760735756 115.0
45.765659612 126.0
45.770583468 123.0
45.775507324 125.0
45.780431180 95.0
45.785355036 122.0
45.790278892 96.0
45.795202748 97.0
45.800126604 84.0
45.805050460 103.0
45.809974316 113.0
45.814898172 117.0
45.819822028 111.0
45.824745884 108.0
45.829669740 115.0
45.834593596 116.0
45.839517452 104.0
45.844441308 114.0
45.849365164 97.0
45.854289020 113.0
45.859212876 116.0
45.864136732 98.0
45.869060588 119.0
45.873984444 129.0
45.878908300 116.0
45.883832156 131.0
45.888756012 117.0
45.893679868 109.0
45.898603724 103.0
45.903527580 110.0
45.908451436 106.0
45.913375292 103.0
45.918299148 98.0
45.923223004 115.0
45.928146860 110.0
45.933070716 112.0
45.937994572 119.0
45.942918428 106.0
45.947842284 92.0
45.952766140 97.0
45.957689996 103.0
45.962613852 106.0
45.967537708 121.0
45.972461564 105.0
45.977385420 99.0
45.982309276 104.0
45.987233132 112.0
45.992156988 118.0
45.997080844 112.0
46.002004700 119.0
46.006928556 88.0
46.011852412 112.0
46.016776268 118.0
46.021700124 117.0
46.026623980 127.0
46.031547836 130.0
46.036471692 106.0
46.041395548 134.0
46.046319404 111.0
46.051243260 122.0
46.056167116 137.0
46.061090972 107.0
46.066014828 115.0
46.070938684 106.0
46.075862540 116.0
46.080786396 131.0
46.085710252 91.0
46.090634108 108.0
46.095557964 100.0
46.100481820 108.0
46.105405676 127.0
46.110329532 97.0
46.115253388 106.0
46.120177244 113.0
46.125101100 122.0
46.130024956 107.0
46.134948812 122.0
46.139872668 110.0
46.144796524 116.0
46.149720380 117.0
46.154644236 114.0
46.159568092 118.0
46.164491948 112.0
46.169415804 117.0
46.174339660 87.0
46.179263516 111.0
46.184187372 120.0
46.189111228 125.0
46.194035084 113.0
46.198958940 96.0
46.203882796 104.0
46.208806652 100.0
46.213730508 109.0
46.218654364 111.0
46.223578220 122.0
46.228502076 105.0
46.233425932 99.0
46.238349788 112.0
46.243273644 104.0
46.248197500 129.0
46.253121357 103.0
46.258045213 128.0
46.262969069 108.0
46.267892925 117.0
46.272816781 108.0
46.277740637 111.0
46.282664493 115.0
46.287588349 116.0
46.292512205 94.0
46.297436061 120.0
46.302359917 95.0
46.307283773 106.0
46.312207629 107.0
46.317131485 121.0
46.322055341 106.0
46.326979197 103.0
46.331903053 112.0
46.336826909 111.0
46.341750765 111.0
46.346674621 89.0
46.351598477 108.0
46.356522333 133.0
46.361446189 110.0
46.366370045 112.0
46.371293901 108.0
46.376217757 122.0
46.381141613 114.0
46.386065469 102.0
46.390989325 106.0
46.395913181 102.0
46.400837037 111.0
46.405760893 129.0
46.410684749 112.0
46.415608605 112.0
46.420532461 90.0
46.425456317 104.0
46.430380173 114.0
46.435304029 111.0
46.440227885 100.0
46.445151741 106.0
46.450075597 120.0
46.454999453 117.0
46.459923309 109.0
46.464847165 125.0
46.469771021 115.0
46.474694877 116.0
46.479618733 129.0
46.484542589 115.0
46.489466445 102.0
46.494390301 94.0
46.499314157 111.0
46.504238013 122.0
46.509161869 104.0
46.514085725 128.0
46.519009581 109.0
46.523933437 99.0
46.528857293 106.0
46.533781149 111.0
46.538705005 119.0
46.543628861 112.0
46.548552717 129.0
46.553476573 113.0
46.558400429 112.0
46.563324285 115.0
46.568248141 119.0
46.573171997 98.0
46.578095853 105.0
46.583019709 102.0
46.587943565 110.0
46.592867421 103.0
46.597791277 102.0
46.602715133 96.0
46.607638989 125.0
46.612562845 106.0
46.617486701 100.0
46.622410557 101.0
46.627334413 116.0
46.632258269 126.0
46.637182125 101.0
46.642105981 112.0
46.647029837 115.0
46.651953693 125.0
46.656877549 118.0
46.661801405 104.0
46.666725261 111.0
46.671649117 137.0
46.676572973 125.0
46.681496829 115.0
46.686420685 109.0
46.691344541 129.0
46.696268397 137.0
46.701192253 116.0
46.706116109 121.0
46.711039965 135.0
46.715963821 138.0
46.720887677 140.0
46.725811533 132.0
46.730735389 119.0
46.735659245 125.0
46.740583101 126.0
46.745506957 142.0
46.750430813 119.0
46.755354670 143.0
46.760278526 116.0
46.765202382 110.0
46.770126238 112.0
46.775050094 122.0
46.779973950 131.0
46.784897806 108.0
46.789821662 128.0
46.794745518 134.0
46.799669374 121.0
46.804593230 124.0
46.809517086 129.0
46.814440942 126.0
46.819364798 145.0
46.824288654 106.0
46.829212510 124.0
46.834136366 107.0
46.839060222 130.0
46.843984078 130.0
46.848907934 120.0
46.853831790 102.0
46.858755646 116.0
46.863679502 132.0
46.868603358 119.0
46.873527214 120.0
46.878451070 114.0
46.883374926 137.0
46.888298782 121.0
46.893222638 124.0
46.898146494 157.0
46.903070350 123.0
46.907994206 123.0
46.912918062 119.0
46.917841918 124.0
46.922765774 113.0
46.927689630 141.0
46.932613486 129.0
46.937537342 130.0
46.942461198 104.0
46.947385054 144.0
46.952308910 131.0
46.957232766 132.0
46.962156622 145.0
46.967080478 117.0
46.972004334 106.0
46.976928190 146.0
46.981852046 150.0
46.986775902 144.0
46.991699758 148.0
46.996623614 153.0
47.001547470 159.0
47.006471326 156.0
47.011395182 153.0
47.016319038 161.0
47.021242894 168.0
47.026166750 210.0
47.031090606 204.0
47.036014462 228.0
47.040938318 262.0
47.045862174 309.0
47.050786030 333.0
47.055709886 381.0
47.060633742 403.0
47.065557598 573.0
47.070481454 634.0
47.075405310 783.0
47.080329166 923.0
47.085253022 1055.0
47.090176878 1186.0
47.095100734 1415.0
47.100024590 1459.0
47.104948446 1687.0
47.109872302 1703.0
47.114796158 1685.0
47.119720014 1559.0
47.124643870 1549.0
47.129567726 1512.0
47.134491582 1345.0
47.139415438 1208.0
47.144339294 1037.0
47.149263150 941.0
47.154187006 756.0
47.159110862 670.0
47.164034718 574.0
47.168958574 498.0
47.173882430 460.0
47.178806286 415.0
47.183730142 381.0
47.188653998 390.0
47.193577854 345.0
47.198501710 306.0
47.203425566 307.0
47.208349422 314.0
47.213273278 292.0
47.218197134 269.0
47.223120990 231.0
47.228044846 210.0
47.232968702 229.0
47.237892558 205.0
47.242816414 219.0
47.247740270 190.0
47.252664127 173.0
47.257587983 190.0
47.262511839 162.0
47.267435695 166.0
47.272359551 155.0
47.277283407 147.0
47.282207263 155.0
47.287131119 152.0
47.292054975 163.0
47.296978831 163.0
47.301902687 143.0
47.306826543 133.0
47.311750399 155.0
47.316674255 147.0
47.321598111 135.0
47.326521967 148.0
47.331445823 150.0
47.336369679 149.0
47.341293535 154.0
47.346217391 142.0
47.351141247 186.0
47.356065103 149.0
47.360988959 162.0
47.365912815 156.0
47.370836671 146.0
47.375760527 144.0
47.380684383 108.0
47.385608239 154.0
47.390532095 131.0
47.395455951 148.0
47.400379807 131.0
47.405303663 144.0
47.410227519 137.0
47.415151375 140.0
47.420075231 166.0
47.424999087 125.0
47.429922943 154.0
47.434846799 140.0
47.439770655 121.0
47.444694511 127.0
47.449618367 133.0
47.454542223 141.0
47.459466079 156.0
47.464389935 140.0
47.469313791 133.0
47.474237647 118.0
47.479161503 125.0
47.484085359 135.0
47.489009215 118.0
47.493933071 130.0
47.498856927 145.0
47.503780783 146.0
47.508704639 133.0
47.513628495 142.0
47.518552351 115.0
47.523476207 119.0
47.528400063 152.0
47.533323919 126.0
47.538247775 129.0
47.543171631 111.0
47.548095487 138.0
47.553019343 125.0
47.557943199 133.0
47.562867055 121.0
47.567790911 124.0
47.572714767 134.0
47.577638623 128.0
47.582562479 135.0
47.587486335 129.0
47.592410191 94.0
47.597334047 124.0
47.602257903 122.0
47.607181759 141.0
47.612105615 138.0
47.617029471 138.0
47.621953327 125.0
47.626877183 125.0
47.631801039 131.0
47.636724895 125.0
47.641648751 124.0
47.646572607 118.0
47.651496463 138.0
47.656420319 111.0
47.661344175 148.0
47.666268031 151.0
47.671191887 117.0
47.676115743 136.0
47.681039599 115.0
47.685963455 139.0
47.690887311 121.0
47.695811167 130.0
47.700735023 111.0
47.705658879 120.0
47.710582735 141.0
47.715506591 121.0
47.720430447 163.0
47.725354303 118.0
47.730278159 122.0
47.735202015 130.0
47.740125871 139.0
47.745049727 150.0
47.749973583 130.0
47.754897440 126.0
47.759821296 140.0
47.764745152 127.0
47.769669008 129.0
47.774592864 123.0
47.779516720 114.0
47.784440576 132.0
47.789364432 136.0
47.794288288 119.0
47.799212144 126.0
47.804136000 132.0
47.809059856 120.0
47.813983712 133.0
47.818907568 110.0
47.823831424 127.0
47.828755280 115.0
47.833679136 98.0
47.838602992 130.0
47.843526848 137.0
47.848450704 124.0
47.853374560 116.0
47.858298416 112.0
47.863222272 135.0
47.868146128 140.0
47.873069984 127.0
47.877993840 142.0
47.882917696 120.0
47.887841552 116.0
47.892765408 133.0
47.897689264 135.0
47.902613120 113.0
47.907536976 112.0
47.912460832 109.0
47.917384688 149.0
47.922308544 112.0
47.927232400 105.0
47.932156256 110.0
47.937080112 135.0
47.942003968 116.0
47.946927824 129.0
47.951851680 124.0
47.956775536 121.0
47.961699392 124.0
47.966623248 117.0
47.971547104 141.0
47.976470960 118.0
47.981394816 123.0
47.986318672 134.0
47.991242528 130.0
47.996166384 141.0
48.001090240 147.0
48.006014096 132.0
48.010937952 127.0
48.015861808 125.0
48.020785664 116.0
48.025709520 120.0
48.030633376 134.0
48.035557232 119.0
48.040481088 132.0
48.045404944 121.0
48.050328800 145.0
48.055252656 114.0
48.060176512 121.0
48.065100368 140.0
48.070024224 147.0
48.074948080 121.0
48.079871936 137.0
48.084795792 122.0
48.089719648 129.0
48.094643504 120.0
48.099567360 107.0
48.104491216 116.0
48.109415072 123.0
48.114338928 133.0
48.119262784 144.0
48.124186640 131.0
48.129110496 129.0
48.134034352 150.0
48.138958208 143.0
48.143882064 129.0
48.148805920 116.0
48.153729776 120.0
48.158653632 125.0
48.163577488 128.0
48.168501344 139.0
48.173425200 117.0
48.178349056 132.0
48.183272912 120.0
48.188196768 131.0
48.193120624 117.0
48.198044480 140.0
48.202968336 147.0
48.207892192 125.0
48.212816048 109.0
48.217739904 118.0
48.222663760 138.0
48.227587616 112.0
48.232511472 129.0
48.237435328 119.0
48.242359184 129.0
48.247283040 131.0
48.252206897 129.0
48.257130753 119.0
48.262054609 144.0
48.266978465 121.0
48.271902321 126.0
48.276826177 122.0
48.281750033 141.0
48.286673889 116.0
48.291597745 119.0
48.296521601 141.0
48.301445457 136.0
48.306369313 126.0
48.311293169 118.0
48.316217025 111.0
48.321140881 132.0
48.326064737 130.0
48.330988593 133.0
48.335912449 92.0
48.340836305 133.0
48.345760161 107.0
48.350684017 120.0
48.355607873 105.0
48.360531729 133.0
48.365455585 113.0
48.370379441 134.0
48.375303297 112.0
48.380227153 120.0
48.385151009 145.0
48.390074865 154.0
48.394998721 122.0
48.399922577 136.0
48.404846433 96.0
48.409770289 135.0
48.414694145 124.0
48.419618001 132.0
48.424541857 112.0
48.429465713 140.0
48.434389569 116.0
48.439313425 126.0
48.444237281 122.0
48.449161137 127.0
48.454084993 114.0
48.459008849 122.0
48.463932705 115.0
48.468856561 128.0
48.473780417 133.0
48.478704273 136.0
48.483628129 135.0
48.488551985 124.0
48.493475841 125.0
48.498399697 121.0
48.503323553 137.0
48.508247409 134.0
48.513171265 137.0
48.518095121 134.0
48.523018977 149.0
48.527942833 112.0
48.532866689 117.0
48.537790545 130.0
48.542714401 143.0
48.547638257 112.0
48.552562113 126.0
48.557485969 137.0
48.562409825 128.0
48.567333681 129.0
48.572257537 129.0
48.577181393 132.0
48.582105249 137.0
48.587029105 145.0
48.591952961 115.0
48.596876817 153.0
48.601800673 135.0
48.606724529 118.0
48.611648385 111.0
48.616572241 144.0
48.621496097 113.0
48.626419953 113.0
48.631343809 143.0
48.636267665 133.0
48.641191521 141.0
48.646115377 126.0
48.651039233 110.0
48.655963089 135.0
48.660886945 123.0
48.665810801 139.0
48.670734657 143.0
48.675658513 132.0
48.680582369 134.0
48.685506225 144.0
48.690430081 127.0
48.695353937 139.0
48.700277793 114.0
48.705201649 119.0
48.710125505 142.0
48.715049361 127.0
48.719973217 138.0
48.724897073 134.0
48.729820929 140.0
48.734744785 136.0
48.739668641 141.0
48.744592497 127.0
48.749516353 135.0
48.754440210 128.0
48.759364066 127.0
48.764287922 102.0
48.769211778 118.0
48.774135634 139.0
48.779059490 126.0
48.783983346 126.0
48.788907202 128.0
48.793831058 153.0
48.798754914 142.0
48.803678770 129.0
48.808602626 135.0
48.813526482 130.0
48.818450338 132.0
48.823374194 126.0
48.828298050 153.0
48.833221906 145.0
48.838145762 129.0
48.843069618 114.0
48.847993474 134.0
48.852917330 133.0
48.857841186 130.0
48.862765042 136.0
48.867688898 169.0
48.872612754 121.0
48.877536610 143.0
48.882460466 130.0
48.887384322 131.0
48.892308178 117.0
48.897232034 133.0
48.902155890 131.0
48.907079746 121.0
48.912003602 136.0
48.916927458 136.0
48.921851314 116.0
48.926775170 154.0
48.931699026 139.0
48.936622882 141.0
48.941546738 159.0
48.946470594 143.0
48.951394450 157.0
48.956318306 132.0
48.961242162 154.0
48.966166018 132.0
48.971089874 120.0
48.976013730 127.0
48.980937586 155.0
48.985861442 137.0
48.990785298 132.0
48.995709154 145.0
49.000633010 140.0
49.005556866 124.0
49.010480722 113.0
49.015404578 136.0
49.020328434 113.0
49.025252290 124.0
49.030176146 135.0
49.035100002 120.0
49.040023858 135.0
49.044947714 137.0
49.049871570 136.0
49.054795426 149.0
49.059719282 132.0
49.064643138 132.0
49.069566994 122.0
49.074490850 136.0
49.079414706 150.0
49.084338562 150.0
49.089262418 148.0
49.094186274 122.0
49.099110130 138.0
49.104033986 148.0
49.108957842 141.0
49.113881698 125.0
49.118805554 147.0
49.123729410 165.0
49.128653266 144.0
49.133577122 131.0
49.138500978 127.0
49.143424834 127.0
49.148348690 166.0
49.153272546 143.0
49.158196402 169.0
49.163120258 169.0
49.168044114 132.0
49.172967970 155.0
49.177891826 142.0
49.182815682 152.0
49.187739538 140.0
49.192663394 172.0
49.197587250 143.0
49.202511106 149.0
49.207434962 168.0
49.212358818 141.0
49.217282674 135.0
49.222206530 140.0
49.227130386 151.0
49.232054242 156.0
49.236978098 161.0
49.241901954 147.0
49.246825810 150.0
49.251749667 169.0
49.256673523 129.0
49.261597379 160.0
49.266521235 149.0
49.271445091 173.0
49.276368947 154.0
49.281292803 159.0
49.286216659 158.0
49.291140515 163.0
49.296064371 135.0
49.300988227 169.0
49.305912083 141.0
49.310835939 149.0
49.315759795 168.0
49.320683651 145.0
49.325607507 162.0
49.330531363 147.0
49.335455219 142.0
49.340379075 153.0
49.345302931 161.0
49.350226787 160.0
49.355150643 171.0
49.360074499 161.0
49.364998355 162.0
49.369922211 167.0
49.374846067 183.0
49.379769923 148.0
49.384693779 161.0
49.389617635 146.0
49.394541491 173.0
49.399465347 175.0
49.404389203 163.0
49.409313059 144.0
49.414236915 206.0
49.419160771 133.0
49.424084627 160.0
49.429008483 174.0
49.433932339 177.0
49.438856195 169.0
49.443780051 163.0
49.448703907 174.0
49.453627763 174.0
49.458551619 162.0
49.463475475 169.0
49.468399331 173.0
49.473323187 168.0
49.478247043 167.0
49.483170899 199.0
49.488094755 182.0
49.493018611 174.0
49.497942467 172.0
49.502866323 156.0
49.507790179 177.0
49.512714035 186.0
49.517637891 221.0
49.522561747 195.0
49.527485603 196.0
49.532409459 184.0
49.537333315 188.0
49.542257171 191.0
49.547181027 185.0
49.552104883 188.0
49.557028739 223.0
49.561952595 219.0
49.566876451 190.0
49.571800307 204.0
49.576724163 215.0
49.581648019 206.0
49.586571875 220.0
49.591495731 234.0
49.596419587 224.0
49.601343443 203.0
49.606267299 220.0
49.611191155 206.0
49.616115011 233.0
49.621038867 193.0
49.625962723 217.0
49.630886579 259.0
49.635810435 230.0
49.640734291 219.0
49.645658147 216.0
49.650582003 219.0
49.655505859 246.0
49.660429715 238.0
49.665353571 220.0
49.670277427 269.0
49.675201283 227.0
49.680125139 240.0
49.685048995 245.0
49.689972851 274.0
49.694896707 230.0
49.699820563 291.0
49.704744419 245.0
49.709668275 263.0
49.714592131 268.0
49.719515987 242.0
49.724439843 270.0
49.729363699 272.0
49.734287555 286.0
49.739211411 289.0
49.744135267 271.0
49.749059123 281.0
49.753982980 305.0
49.758906836 284.0
49.763830692 308.0
49.768754548 270.0
49.773678404 312.0
49.778602260 319.0
49.783526116 284.0
49.788449972 312.0
49.793373828 322.0
49.798297684 358.0
49.803221540 320.0
49.808145396 305.0
49.813069252 320.0
49.817993108 368.0
49.822916964 311.0
49.827840820 347.0
49.832764676 340.0
49.837688532 320.0
49.842612388 298.0
49.847536244 345.0
49.852460100 375.0
49.857383956 319.0
49.862307812 364.0
49.867231668 335.0
49.872155524 404.0
49.877079380 407.0
49.882003236 388.0
49.886927092 373.0
49.891850948 383.0
49.896774804 378.0
49.901698660 383.0
49.906622516 361.0
49.911546372 395.0
49.916470228 414.0
49.921394084 421.0
49.926317940 434.0
49.931241796 414.0
49.936165652 418.0
49.941089508 424.0
49.946013364 420.0
49.950937220 424.0
49.955861076 443.0
49.960784932 437.0
49.965708788 468.0
49.970632644 461.0
49.975556500 439.0
49.980480356 470.0
49.985404212 453.0
49.990328068 438.0
49.995251924 493.0
50.000175780 495.0
50.005099636 450.0
50.010023492 500.0
50.014947348 483.0
50.019871204 497.0
50.024795060 478.0
50.029718916 525.0
50.034642772 482.0
50.039566628 480.0
50.044490484 518.0
50.049414340 496.0
50.054338196 511.0
50.059262052 534.0
50.064185908 470.0
50.069109764 500.0
50.074033620 476.0
50.078957476 503.0
50.083881332 517.0
50.088805188 515.0
50.093729044 505.0
50.098652900 528.0
50.103576756 529.0
50.108500612 564.0
50.113424468 529.0
50.118348324 552.0
50.123272180 552.0
50.128196036 605.0
50.133119892 526.0
50.138043748 534.0
50.142967604 565.0
50.147891460 612.0
50.152815316 579.0
50.157739172 550.0
50.162663028 585.0
50.167586884 564.0
50.172510740 591.0
50.177434596 573.0
50.182358452 582.0
50.187282308 606.0
50.192206164 571.0
50.197130020 561.0
50.202053876 560.0
50.206977732 572.0
50.211901588 585.0
50.216825444 532.0
50.221749300 566.0
50.226673156 552.0
50.231597012 554.0
50.236520868 578.0
50.241444724 542.0
50.246368580 582.0
50.251292437 543.0
50.256216293 523.0
50.261140149 536.0
50.266064005 554.0
50.270987861 540.0
50.275911717 578.0
50.280835573 530.0
50.285759429 565.0
50.290683285 548.0
50.295607141 541.0
50.300530997 510.0
50.305454853 540.0
50.310378709 532.0
50.315302565 554.0
50.320226421 528.0
50.325150277 495.0
50.330074133 469.0
50.334997989 482.0
50.339921845 553.0
50.344845701 520.0
50.349769557 504.0
50.354693413 545.0
50.359617269 516.0
50.364541125 494.0
50.369464981 497.0
50.374388837 478.0
50.379312693 502.0
50.384236549 475.0
50.389160405 565.0
50.394084261 479.0
50.399008117 483.0
50.403931973 471.0
50.408855829 491.0
50.413779685 459.0
50.418703541 438.0
50.423627397 462.0
50.428551253 440.0
50.433475109 422.0
50.438398965 476.0
50.443322821 425.0
50.448246677 428.0
50.453170533 436.0
50.458094389 452.0
50.463018245 448.0
50.467942101 444.0
50.472865957 461.0
50.477789813 449.0
50.482713669 409.0
50.487637525 459.0
50.492561381 411.0
50.497485237 389.0
50.502409093 400.0
50.507332949 405.0
50.512256805 418.0
50.517180661 392.0
50.522104517 425.0
50.527028373 417.0
50.531952229 388.0
50.536876085 373.0
50.541799941 401.0
50.546723797 406.0
50.551647653 384.0
50.556571509 377.0
50.561495365 388.0
50.566419221 347.0
50.571343077 393.0
50.576266933 351.0
50.581190789 357.0
50.586114645 377.0
50.591038501 344.0
50.595962357 338.0
50.600886213 338.0
50.605810069 324.0
50.610733925 349.0
50.615657781 348.0
50.620581637 334.0
50.625505493 373.0
50.630429349 342.0
50.635353205 336.0
50.640277061 332.0
50.645200917 323.0
50.650124773 263.0
50.655048629 333.0
50.659972485 314.0
50.664896341 329.0
50.669820197 285.0
50.674744053 347.0
50.679667909 317.0
50.684591765 296.0
50.689515621 296.0
50.694439477 301.0
50.699363333 296.0
50.704287189 297.0
50.709211045 316.0
50.714134901 320.0
50.719058757 279.0
50.723982613 310.0
50.728906469 295.0
50.733830325 288.0
50.738754181 291.0
50.743678037 294.0
50.748601893 289.0
50.753525750 272.0
50.758449606 229.0
50.763373462 287.0
50.768297318 269.0
50.773221174 290.0
50.778145030 296.0
50.783068886 287.0
50.787992742 279.0
50.792916598 282.0
50.797840454 268.0
50.802764310 270.0
50.807688166 311.0
50.812612022 300.0
50.817535878 277.0
50.822459734 267.0
50.827383590 274.0
50.832307446 293.0
50.837231302 265.0
50.842155158 294.0
50.847079014 296.0
50.852002870 291.0
50.856926726 277.0
50.861850582 276.0
50.866774438 280.0
50.871698294 286.0
50.876622150 293.0
50.881546006 288.0
50.886469862 268.0
50.891393718 280.0
50.896317574 295.0
50.901241430 283.0
50.906165286 299.0
50.911089142 279.0
50.916012998 287.0
50.920936854 282.0
50.925860710 299.0
50.930784566 277.0
50.935708422 281.0
50.940632278 276.0
50.945556134 271.0
50.950479990 287.0
50.955403846 315.0
50.960327702 290.0
50.965251558 312.0
50.970175414 292.0
50.975099270 314.0
50.980023126 303.0
50.984946982 281.0
50.989870838 287.0
50.994794694 284.0
50.999718550 316.0
51.004642406 286.0
51.009566262 317.0
51.014490118 271.0
51.019413974 314.0
51.024337830 265.0
51.029261686 300.0
51.034185542 279.0
51.039109398 310.0
51.044033254 276.0
51.048957110 301.0
51.053880966 311.0
51.058804822 294.0
51.063728678 294.0
51.068652534 325.0
51.073576390 326.0
51.078500246 331.0
51.083424102 332.0
51.088347958 273.0
51.093271814 360.0
51.098195670 328.0
51.103119526 313.0
51.108043382 323.0
51.112967238 315.0
51.117891094 316.0
51.122814950 302.0
51.127738806 323.0
51.132662662 336.0
51.137586518 327.0
51.142510374 307.0
51.147434230 322.0
51.152358086 308.0
51.157281942 326.0
51.162205798 334.0
51.167129654 326.0
51.172053510 345.0
51.176977366 352.0
51.181901222 343.0
51.186825078 345.0
51.191748934 350.0
51.196672790 351.0
51.201596646 375.0
51.206520502 371.0
51.211444358 339.0
51.216368214 339.0
51.221292070 334.0
51.226215926 334.0
51.231139782 367.0
51.236063638 358.0
51.240987494 335.0
51.245911350 367.0
51.250835207 391.0
51.255759063 341.0
51.260682919 326.0
51.265606775 390.0
51.270530631 356.0
51.275454487 352.0
51.280378343 397.0
51.285302199 361.0
51.290226055 379.0
51.295149911 416.0
51.300073767 379.0
51.304997623 375.0
51.309921479 362.0
51.314845335 372.0
51.319769191 403.0
51.324693047 433.0
51.329616903 391.0
51.334540759 413.0
51.339464615 419.0
51.344388471 398.0
51.349312327 411.0
51.354236183 420.0
51.359160039 442.0
51.364083895 426.0
51.369007751 405.0
51.373931607 420.0
51.378855463 413.0
51.383779319 388.0
51.388703175 426.0
51.393627031 432.0
51.398550887 469.0
51.403474743 430.0
51.408398599 405.0
51.413322455 425.0
51.418246311 424.0
51.423170167 408.0
51.428094023 453.0
51.433017879 466.0
51.437941735 444.0
51.442865591 438.0
51.447789447 454.0
51.452713303 441.0
51.457637159 479.0
51.462561015 429.0
51.467484871 458.0
51.472408727 459.0
51.477332583 493.0
51.482256439 464.0
51.487180295 500.0
51.492104151 450.0
51.497028007 468.0
51.501951863 444.0
51.506875719 480.0
51.511799575 451.0
51.516723431 487.0
51.521647287 446.0
51.526571143 486.0
51.531494999 526.0
51.536418855 529.0
51.541342711 528.0
51.546266567 536.0
51.551190423 480.0
51.556114279 514.0
51.561038135 557.0
51.565961991 502.0
51.570885847 518.0
51.575809703 553.0
51.580733559 526.0
51.585657415 524.0
51.590581271 517.0
51.595505127 556.0
51.600428983 549.0
51.605352839 546.0
51.610276695 538.0
51.615200551 552.0
51.620124407 530.0
51.625048263 546.0
51.629972119 515.0
51.634895975 545.0
51.639819831 559.0
51.644743687 568.0
51.649667543 558.0
51.654591399 561.0
51.659515255 547.0
51.664439111 577.0
51.669362967 591.0
51.674286823 566.0
51.679210679 604.0
51.684134535 575.0
51.689058391 600.0
51.693982247 613.0
51.698906103 572.0
51.703829959 625.0
51.708753815 623.0
51.713677671 626.0
51.718601527 627.0
51.723525383 654.0
51.728449239 600.0
51.733373095 657.0
51.738296951 672.0
51.743220807 644.0
51.748144663 609.0
51.753068520 651.0
51.757992376 648.0
51.762916232 670.0
51.767840088 669.0
51.772763944 657.0
51.777687800 670.0
51.782611656 681.0
51.787535512 687.0
51.792459368 662.0
51.797383224 693.0
51.802307080 698.0
51.807230936 708.0
51.812154792 680.0
51.817078648 691.0
51.822002504 710.0
51.826926360 726.0
51.831850216 698.0
51.836774072 725.0
51.841697928 700.0
51.846621784 698.0
51.851545640 786.0
51.856469496 737.0
51.861393352 735.0
51.866317208 704.0
51.871241064 756.0
51.876164920 762.0
51.881088776 759.0
51.886012632 775.0
51.890936488 749.0
51.895860344 767.0
51.900784200 758.0
51.905708056 779.0
51.910631912 767.0
51.915555768 830.0
51.920479624 815.0
51.925403480 732.0
51.930327336 842.0
51.935251192 844.0
51.940175048 860.0
51.945098904 893.0
51.950022760 862.0
51.954946616 910.0
51.959870472 909.0
51.964794328 872.0
51.969718184 941.0
51.974642040 931.0
51.979565896 937.0
51.984489752 921.0
51.989413608 902.0
51.994337464 942.0
51.999261320 959.0
52.004185176 921.0
52.009109032 955.0
52.014032888 1006.0
52.018956744 980.0
52.023880600 1010.0
52.028804456 1006.0
52.033728312 1046.0
52.038652168 1030.0
52.043576024 1122.0
52.048499880 1025.0
52.053423736 1122.0
52.058347592 1156.0
52.063271448 1144.0
52.068195304 1127.0
52.073119160 1228.0
52.078043016 1250.0
52.082966872 1237.0
52.087890728 1238.0
52.092814584 1254.0
52.097738440 1287.0
52.102662296 1338.0
52.107586152 1318.0
52.112510008 1350.0
52.117433864 1390.0
52.122357720 1483.0
52.127281576 1456.0
52.132205432 1452.0
52.137129288 1475.0
52.142053144 1579.0
52.146977000 1616.0
52.151900856 1657.0
52.156824712 1651.0
52.161748568 1746.0
52.166672424 1788.0
52.171596280 1878.0
52.176520136 1979.0
52.181443992 2023.0
52.186367848 2140.0
52.191291704 2302.0
52.196215560 2459.0
52.201139416 2548.0
52.206063272 2713.0
52.210987128 2916.0
52.215910984 3027.0
52.220834840 3212.0
52.225758696 3583.0
52.230682552 3811.0
52.235606408 3968.0
52.240530264 4214.0
52.245454120 4259.0
52.250377977 4552.0
52.255301833 4634.0
52.260225689 4848.0
52.265149545 4989.0
52.270073401 4875.0
52.274997257 5104.0
52.279921113 5052.0
52.284844969 5083.0
52.289768825 5012.0
52.294692681 4887.0
52.299616537 4921.0
52.304540393 4814.0
52.309464249 4772.0
52.314388105 4759.0
52.319311961 4709.0
52.324235817 4752.0
52.329159673 4915.0
52.334083529 5050.0
52.339007385 5095.0
52.343931241 5261.0
52.348855097 5326.0
52.353778953 5502.0
52.358702809 5785.0
52.363626665 6098.0
52.368550521 6231.0
52.373474377 6699.0
52.378398233 7046.0
52.383322089 7788.0
52.388245945 8089.0
52.393169801 9128.0
52.398093657 9686.0
52.403017513 10784.0
52.407941369 11982.0
52.412865225 13225.0
52.417789081 14522.0
52.422712937 17109.0
52.427636793 19162.0
52.432560649 22547.0
52.437484505 26376.0
52.442408361 32012.0
52.447332217 38738.0
52.452256073 49257.0
52.457179929 63839.0
52.462103785 90165.0
52.467027641 129388.0
52.471951497 190386.0
52.476875353 259113.0
52.481799209 320910.0
52.486723065 363469.0
52.491646921 391123.0
52.496570777 409753.0
52.501494633 420314.0
52.506418489 425335.0
52.511342345 420072.0
52.516266201 407270.0
52.521190057 377522.0
52.526113913 329709.0
52.531037769 258722.0
52.535961625 188626.0
52.540885481 135712.0
52.545809337 98695.0
52.550733193 75406.0
52.555657049 58091.0
52.560580905 46697.0
52.565504761 39674.0
52.570428617 35219.0
52.575352473 32308.0
52.580276329 31561.0
52.585200185 32550.0
52.590124041 35299.0
52.595047897 41128.0
52.599971753 49456.0
52.604895609 65485.0
52.609819465 86939.0
52.614743321 116795.0
52.619667177 146389.0
52.624591033 171554.0
52.629514889 189596.0
52.634438745 201999.0
52.639362601 209454.0
52.644286457 211558.0
52.649210313 211377.0
52.654134169 206230.0
52.659058025 193950.0
52.663981881 175020.0
52.668905737 148493.0
52.673829593 116668.0
52.678753449 87362.0
52.683677305 64672.0
52.688601161 47937.0
52.693525017 36403.0
52.698448873 28101.0
52.703372729 22590.0
52.708296585 18652.0
52.713220441 15543.0
52.718144297 13351.0
52.723068153 11524.0
52.727992009 10590.0
52.732915865 9367.0
52.737839721 8525.0
52.742763577 7788.0
52.747687433 7140.0
52.752611290 6698.0
52.757535146 6121.0
52.762459002 5905.0
52.767382858 5628.0
52.772306714 5306.0
52.777230570 4995.0
52.782154426 4903.0
52.787078282 4561.0
52.792002138 4291.0
52.796925994 4214.0
52.801849850 3928.0
52.806773706 3864.0
52.811697562 3671.0
52.816621418 3577.0
52.821545274 3384.0
52.826469130 3253.0
52.831392986 3176.0
52.836316842 2989.0
52.841240698 3062.0
52.846164554 2719.0
52.851088410 2736.0
52.856012266 2631.0
52.860936122 2562.0
52.865859978 2501.0
52.870783834 2500.0
52.875707690 2371.0
52.880631546 2320.0
52.885555402 2232.0
52.890479258 2216.0
52.895403114 2168.0
52.900326970 2188.0
52.905250826 2027.0
52.910174682 1963.0
52.915098538 1962.0
52.920022394 1788.0
52.924946250 1861.0
52.929870106 1824.0
52.934793962 1688.0
52.939717818 1725.0
52.944641674 1648.0
52.949565530 1566.0
52.954489386 1570.0
52.959413242 1541.0
52.964337098 1580.0
52.969260954 1516.0
52.974184810 1470.0
52.979108666 1432.0
52.984032522 1427.0
52.988956378 1363.0
52.993880234 1269.0
52.998804090 1266.0
53.003727946 1377.0
53.008651802 1294.0
53.013575658 1332.0
53.018499514 1268.0
53.023423370 1200.0
53.028347226 1136.0
53.033271082 1173.0
53.038194938 1165.0
53.043118794 1090.0
53.048042650 1130.0
53.052966506 1096.0
53.057890362 1089.0
53.062814218 1041.0
53.067738074 1034.0
53.072661930 1058.0
53.077585786 1066.0
53.082509642 999.0
53.087433498 1013.0
53.092357354 945.0
53.097281210 997.0
53.102205066 936.0
53.107128922 939.0
53.112052778 934.0
53.116976634 909.0
53.121900490 915.0
53.126824346 877.0
53.131748202 898.0
53.136672058 845.0
53.141595914 801.0
53.146519770 845.0
53.151443626 829.0
53.156367482 826.0
53.161291338 835.0
53.166215194 844.0
53.171139050 815.0
53.176062906 809.0
53.180986762 756.0
53.185910618 721.0
53.190834474 760.0
53.195758330 742.0
53.200682186 702.0
53.205606042 736.0
53.210529898 728.0
53.215453754 748.0
53.220377610 708.0
53.225301466 661.0
53.230225322 703.0
53.235149178 662.0
53.240073034 677.0
53.244996890 673.0
53.249920747 649.0
53.254844603 682.0
53.259768459 673.0
53.264692315 626.0
53.269616171 633.0
53.274540027 585.0
53.279463883 663.0
53.284387739 630.0
53.289311595 585.0
53.294235451 629.0
53.299159307 606.0
53.304083163 573.0
53.309007019 592.0
53.313930875 564.0
53.318854731 612.0
53.323778587 558.0
53.328702443 557.0
53.333626299 552.0
53.338550155 599.0
53.343474011 522.0
53.348397867 523.0
53.353321723 547.0
53.358245579 527.0
53.363169435 511.0
53.368093291 505.0
53.373017147 514.0
53.377941003 526.0
53.382864859 505.0
53.387788715 485.0
53.392712571 486.0
53.397636427 537.0
53.402560283 518.0
53.407484139 458.0
53.412407995 483.0
53.417331851 456.0
53.422255707 445.0
53.427179563 485.0
53.432103419 474.0
53.437027275 428.0
53.441951131 442.0
53.446874987 435.0
53.451798843 457.0
53.456722699 456.0
53.461646555 425.0
53.466570411 415.0
53.471494267 394.0
53.476418123 424.0
53.481341979 426.0
53.486265835 456.0
53.491189691 373.0
53.496113547 411.0
53.501037403 393.0
53.505961259 387.0
53.510885115 369.0
53.515808971 398.0
53.520732827 355.0
53.525656683 406.0
53.530580539 360.0
53.535504395 378.0
53.540428251 394.0
53.545352107 367.0
53.550275963 331.0
53.555199819 359.0
53.560123675 357.0
53.565047531 361.0
53.569971387 362.0
53.574895243 379.0
53.579819099 347.0
53.584742955 358.0
53.589666811 326.0
53.594590667 350.0
53.599514523 381.0
53.604438379 359.0
53.609362235 335.0
53.614286091 321.0
53.619209947 316.0
53.624133803 334.0
53.629057659 340.0
53.633981515 306.0
53.638905371 351.0
53.643829227 290.0
53.648753083 300.0
53.653676939 288.0
53.658600795 313.0
53.663524651 324.0
53.668448507 282.0
53.673372363 284.0
53.678296219 277.0
53.683220075 315.0
53.688143931 300.0
53.693067787 294.0
53.697991643 280.0
53.702915499 268.0
53.707839355 290.0
53.712763211 269.0
53.717687067 287.0
53.722610923 266.0
53.727534779 288.0
53.732458635 289.0
53.737382491 267.0
53.742306347 273.0
53.747230203 294.0
53.752154060 263.0
53.757077916 286.0
53.762001772 272.0
53.766925628 273.0
53.771849484 224.0
53.776773340 227.0
53.781697196 258.0
53.786621052 295.0
53.791544908 224.0
53.796468764 203.0
53.801392620 211.0
53.806316476 224.0
53.811240332 199.0
53.816164188 232.0
53.821088044 234.0
53.826011900 203.0
53.830935756 215.0
53.835859612 226.0
53.840783468 197.0
53.845707324 226.0
53.850631180 219.0
53.855555036 178.0
53.860478892 200.0
53.865402748 256.0
53.870326604 218.0
53.875250460 256.0
53.880174316 205.0
53.885098172 208.0
53.890022028 214.0
53.894945884 202.0
53.899869740 215.0
53.904793596 204.0
53.909717452 216.0
53.914641308 189.0
53.919565164 186.0
53.924489020 207.0
53.929412876 184.0
53.934336732 199.0
53.939260588 208.0
53.944184444 194.0
53.949108300 202.0
53.954032156 200.0
53.958956012 206.0
53.963879868 192.0
53.968803724 199.0
53.973727580 188.0
53.978651436 190.0
53.983575292 197.0
53.988499148 171.0
53.993423004 200.0
53.998346860 191.0
54.003270716 205.0
54.008194572 189.0
54.013118428 212.0
54.018042284 168.0
54.022966140 191.0
54.027889996 206.0
54.032813852 187.0
54.037737708 186.0
54.042661564 210.0
54.047585420 179.0
54.052509276 193.0
54.057433132 188.0
54.062356988 183.0
54.067280844 199.0
54.072204700 196.0
54.077128556 211.0
54.082052412 177.0
54.086976268 209.0
54.091900124 181.0
54.096823980 189.0
54.101747836 191.0
54.106671692 190.0
54.111595548 185.0
54.116519404 195.0
54.121443260 169.0
54.126367116 207.0
54.131290972 175.0
54.136214828 191.0
54.141138684 174.0
54.146062540 181.0
54.150986396 189.0
54.155910252 169.0
54.160834108 162.0
54.165757964 165.0
54.170681820 186.0
54.175605676 205.0
54.180529532 190.0
54.185453388 177.0
54.190377244 178.0
54.195301100 188.0
54.200224956 214.0
54.205148812 182.0
54.210072668 168.0
54.214996524 185.0
54.219920380 176.0
54.224844236 210.0
54.229768092 166.0
54.234691948 149.0
54.239615804 213.0
54.244539660 163.0
54.249463517 175.0
54.254387373 170.0
54.259311229 145.0
54.264235085 187.0
54.269158941 163.0
54.274082797 171.0
54.279006653 148.0
54.283930509 151.0
54.288854365 160.0
54.293778221 156.0
54.298702077 185.0
54.303625933 174.0
54.308549789 152.0
54.313473645 172.0
54.318397501 177.0
54.323321357 204.0
54.328245213 143.0
54.333169069 185.0
54.338092925 165.0
54.343016781 160.0
54.347940637 179.0
54.352864493 167.0
54.357788349 153.0
54.362712205 167.0
54.367636061 168.0
54.372559917 170.0
54.377483773 179.0
54.382407629 165.0
54.387331485 160.0
54.392255341 184.0
54.397179197 145.0
54.402103053 161.0
54.407026909 170.0
54.411950765 173.0
54.416874621 172.0
54.421798477 145.0
54.426722333 164.0
54.431646189 168.0
54.436570045 169.0
54.441493901 150.0
54.446417757 170.0
54.451341613 158.0
54.456265469 165.0
54.461189325 161.0
54.466113181 171.0
54.471037037 150.0
54.475960893 167.0
54.480884749 166.0
54.485808605 142.0
54.490732461 150.0
54.495656317 166.0
54.500580173 148.0
54.505504029 158.0
54.510427885 147.0
54.515351741 156.0
54.520275597 166.0
54.525199453 153.0
54.530123309 139.0
54.535047165 168.0
54.539971021 134.0
54.544894877 150.0
54.549818733 153.0
54.554742589 164.0
54.559666445 152.0
54.564590301 156.0
54.569514157 157.0
54.574438013 158.0
54.579361869 169.0
54.584285725 142.0
54.589209581 169.0
54.594133437 168.0
54.599057293 144.0
54.603981149 151.0
54.608905005 144.0
54.613828861 141.0
54.618752717 154.0
54.623676573 165.0
54.628600429 149.0
54.633524285 146.0
54.638448141 154.0
54.643371997 151.0
54.648295853 157.0
54.653219709 164.0
54.658143565 149.0
54.663067421 163.0
54.667991277 158.0
54.672915133 149.0
54.677838989 165.0
54.682762845 155.0
54.687686701 152.0
54.692610557 154.0
54.697534413 149.0
54.702458269 167.0
54.707382125 132.0
54.712305981 158.0
54.717229837 161.0
54.722153693 152.0
54.727077549 159.0
54.732001405 166.0
54.736925261 162.0
54.741849117 138.0
54.746772973 151.0
54.751696830 149.0
54.756620686 154.0
54.761544542 156.0
54.766468398 159.0
54.771392254 136.0
54.776316110 141.0
54.781239966 137.0
54.786163822 143.0
54.791087678 127.0
54.796011534 139.0
54.800935390 127.0
54.805859246 151.0
54.810783102 148.0
54.815706958 145.0
54.820630814 142.0
54.825554670 139.0
54.830478526 166.0
54.835402382 148.0
54.840326238 141.0
54.845250094 122.0
54.850173950 119.0
54.855097806 137.0
54.860021662 138.0
54.864945518 154.0
54.869869374 142.0
54.874793230 178.0
54.879717086 166.0
54.884640942 155.0
54.889564798 140.0
54.894488654 145.0
54.899412510 136.0
54.904336366 130.0
54.909260222 142.0
54.914184078 152.0
54.919107934 138.0
54.924031790 166.0
54.928955646 135.0
54.933879502 126.0
54.938803358 144.0
54.943727214 146.0
54.948651070 143.0
54.953574926 142.0
54.958498782 154.0
54.963422638 163.0
54.968346494 138.0
54.973270350 130.0
54.978194206 136.0
54.983118062 166.0
54.988041918 147.0
54.992965774 146.0
54.997889630 168.0
