30.002461930 108.0
30.007385786 88.0
30.012309642 115.0
30.017233498 103.0
30.022157354 108.0
30.027081210 104.0
30.032005066 107.0
30.036928922 115.0
30.041852778 126.0
30.046776634 124.0
30.051700490 117.0
30.056624346 114.0
30.061548202 110.0
30.066472058 104.0
30.071395914 135.0
30.076319770 105.0
30.081243626 100.0
30.086167482 116.0
30.091091338 102.0
30.096015194 118.0
30.100939050 88.0
30.105862906 115.0
30.110786762 114.0
30.115710618 116.0
30.120634474 113.0
30.125558330 100.0
30.130482186 111.0
30.135406042 104.0
30.140329898 110.0
30.145253754 113.0
30.150177610 118.0
30.155101466 114.0
30.160025322 107.0
30.164949178 106.0
30.169873034 111.0
30.174796890 113.0
30.179720746 96.0
30.184644602 117.0
30.189568458 107.0
30.194492314 131.0
30.199416170 85.0
30.204340026 112.0
30.209263882 131.0
30.214187738 109.0
30.219111594 111.0
30.224035450 91.0
30.228959306 100.0
30.233883162 104.0
30.238807018 107.0
30.243730874 98.0
30.248654730 104.0
30.253578587 101.0
30.258502443 120.0
30.263426299 107.0
30.268350155 106.0
30.273274011 104.0
30.278197867 127.0
30.283121723 109.0
30.288045579 123.0
30.292969435 101.0
30.297893291 100.0
30.302817147 95.0
30.307741003 96.0
30.312664859 105.0
30.317588715 126.0
30.322512571 104.0
30.327436427 117.0
30.332360283 125.0
30.337284139 108.0
30.342207995 118.0
30.347131851 121.0
30.352055707 117.0
30.356979563 113.0
30.361903419 112.0
30.366827275 98.0
30.371751131 99.0
30.376674987 113.0
30.381598843 112.0
30.386522699 116.0
30.391446555 108.0
30.396370411 123.0
30.401294267 117.0
30.406218123 136.0
30.411141979 99.0
30.416065835 104.0
30.420989691 111.0
30.425913547 104.0
30.430837403 93.0
30.435761259 109.0
30.440685115 112.0
30.445608971 121.0
30.450532827 114.0
30.455456683 94.0
30.460380539 115.0
30.465304395 103.0
30.470228251 107.0
30.475152107 98.0
30.480075963 126.0
30.484999819 108.0
30.489923675 124.0
30.494847531 109.0
30.499771387 125.0
30.504695243 100.0
30.509619099 103.0
30.514542955 111.0
30.519466811 110.0
30.524390667 103.0
30.529314523 113.0
30.534238379 110.0
30.539162235 99.0
30.544086091 98.0
30.549009947 124.0
30.553933803 109.0
30.558857659 110.0
30.563781515 108.0
30.568705371 97.0
30.573629227 111.0
30.578553083 104.0
30.583476939 114.0
30.588400795 106.0
30.593324651 94.0
30.598248507 135.0
30.603172363 119.0
30.608096219 117.0
30.613020075 109.0
30.617943931 115.0
30.622867787 130.0
30.627791643 106.0
30.632715499 119.0
30.637639355 121.0
30.642563211 133.0
30.647487067 96.0
30.652410923 96.0
30.657334779 104.0
30.662258635 128.0
30.667182491 126.0
30.672106347 91.0
30.677030203 133.0
30.681954059 116.0
30.686877915 106.0
30.691801771 113.0
30.696725627 125.0
30.701649483 116.0
30.706573339 97.0
30.711497195 110.0
30.716421051 116.0
30.721344907 120.0
30.726268763 105.0
30.731192619 122.0
30.736116475 102.0
30.741040331 103.0
30.745964187 100.0
30.750888043 97.0
30.755811900 120.0
30.760735756 105.0
30.765659612 119.0
30.770583468 132.0
30.775507324 92.0
30.780431180 112.0
30.785355036 112.0
30.790278892 108.0
30.795202748 111.0
30.800126604 111.0
30.805050460 115.0
30.809974316 115.0
30.814898172 112.0
30.819822028 115.0
30.824745884 117.0
30.829669740 108.0
30.834593596 119.0
30.839517452 114.0
30.844441308 102.0
30.849365164 106.0
30.854289020 131.0
30.859212876 124.0
30.864136732 112.0
30.869060588 87.0
30.873984444 101.0
30.878908300 80.0
30.883832156 120.0
30.888756012 109.0
30.893679868 116.0
30.898603724 100.0
30.903527580 121.0
30.908451436 123.0
30.913375292 114.0
30.918299148 111.0
30.923223004 112.0
30.928146860 114.0
30.933070716 111.0
30.937994572 110.0
30.942918428 107.0
30.947842284 90.0
30.952766140 104.0
30.957689996 112.0
30.962613852 95.0
30.967537708 107.0
30.972461564 90.0
30.977385420 106.0
30.982309276 117.0
30.987233132 107.0
30.992156988 119.0
30.997080844 131.0
31.002004700 118.0
31.006928556 99.0
31.011852412 104.0
31.016776268 113.0
31.021700124 125.0
31.026623980 120.0
31.031547836 115.0
31.036471692 101.0
31.041395548 106.0
31.046319404 131.0
31.051243260 120.0
31.056167116 98.0
31.061090972 102.0
31.066014828 114.0
31.070938684 123.0
31.075862540 96.0
31.080786396 111.0
31.085710252 111.0
31.090634108 120.0
31.095557964 124.0
31.100481820 127.0
31.105405676 89.0
31.110329532 128.0
31.115253388 112.0
31.120177244 105.0
31.125101100 110.0
31.130024956 106.0
31.134948812 109.0
31.139872668 107.0
31.144796524 96.0
31.149720380 113.0
31.154644236 108.0
31.159568092 102.0
31.164491948 102.0
31.169415804 115.0
31.174339660 104.0
31.179263516 107.0
31.184187372 108.0
31.189111228 108.0
31.194035084 115.0
31.198958940 112.0
31.203882796 103.0
31.208806652 113.0
31.213730508 107.0
31.218654364 120.0
31.223578220 91.0
31.228502076 108.0
31.233425932 121.0
31.238349788 109.0
31.243273644 100.0
31.248197500 88.0
31.253121357 98.0
31.258045213 116.0
31.262969069 104.0
31.267892925 108.0
31.272816781 120.0
31.277740637 114.0
31.282664493 113.0
31.287588349 96.0
31.292512205 128.0
31.297436061 140.0
31.302359917 119.0
31.307283773 110.0
31.312207629 100.0
31.317131485 108.0
31.322055341 107.0
31.326979197 114.0
31.331903053 100.0
31.336826909 131.0
31.341750765 108.0
31.346674621 120.0
31.351598477 105.0
31.356522333 110.0
31.361446189 112.0
31.366370045 106.0
31.371293901 124.0
31.376217757 120.0
31.381141613 98.0
31.386065469 130.0
31.390989325 121.0
31.395913181 120.0
31.400837037 100.0
31.405760893 119.0
31.410684749 111.0
31.415608605 110.0
31.420532461 111.0
31.425456317 122.0
31.430380173 119.0
31.435304029 115.0
31.440227885 106.0
31.445151741 99.0
31.450075597 120.0
31.454999453 115.0
31.459923309 99.0
31.464847165 103.0
31.469771021 104.0
31.474694877 105.0
31.479618733 117.0
31.484542589 126.0
31.489466445 105.0
31.494390301 104.0
31.499314157 121.0
31.504238013 99.0
31.509161869 105.0
31.514085725 133.0
31.519009581 108.0
31.523933437 115.0
31.528857293 118.0
31.533781149 124.0
31.538705005 98.0
31.543628861 124.0
31.548552717 107.0
31.553476573 124.0
31.558400429 114.0
31.563324285 109.0
31.568248141 119.0
31.573171997 118.0
31.578095853 112.0
31.583019709 129.0
31.587943565 106.0
31.592867421 96.0
31.597791277 120.0
31.602715133 113.0
31.607638989 134.0
31.612562845 127.0
31.617486701 99.0
31.622410557 130.0
31.627334413 106.0
31.632258269 110.0
31.637182125 100.0
31.642105981 124.0
31.647029837 100.0
31.651953693 113.0
31.656877549 115.0
31.661801405 121.0
31.666725261 128.0
31.671649117 111.0
31.676572973 95.0
31.681496829 104.0
31.686420685 102.0
31.691344541 114.0
31.696268397 117.0
31.701192253 124.0
31.706116109 114.0
31.711039965 131.0
31.715963821 131.0
31.720887677 111.0
31.725811533 123.0
31.730735389 114.0
31.735659245 110.0
31.740583101 91.0
31.745506957 115.0
31.750430813 101.0
31.755354670 116.0
31.760278526 107.0
31.765202382 115.0
31.770126238 106.0
31.775050094 114.0
31.779973950 107.0
31.784897806 106.0
31.789821662 107.0
31.794745518 112.0
31.799669374 99.0
31.804593230 125.0
31.809517086 130.0
31.814440942 121.0
31.819364798 122.0
31.824288654 110.0
31.829212510 106.0
31.834136366 116.0
31.839060222 108.0
31.843984078 117.0
31.848907934 106.0
31.853831790 113.0
31.858755646 114.0
31.863679502 107.0
31.868603358 122.0
31.873527214 108.0
31.878451070 121.0
31.883374926 119.0
31.888298782 113.0
31.893222638 143.0
31.898146494 118.0
31.903070350 112.0
31.907994206 131.0
31.912918062 116.0
31.917841918 130.0
31.922765774 115.0
31.927689630 135.0
31.932613486 118.0
31.937537342 139.0
31.942461198 116.0
31.947385054 123.0
31.952308910 142.0
31.957232766 127.0
31.962156622 124.0
31.967080478 123.0
31.972004334 125.0
31.976928190 127.0
31.981852046 141.0
31.986775902 116.0
31.991699758 145.0
31.996623614 147.0
32.001547470 165.0
32.006471326 154.0
32.011395182 171.0
32.016319038 166.0
32.021242894 148.0
32.026166750 163.0
32.031090606 168.0
32.036014462 161.0
32.040938318 180.0
32.045862174 188.0
32.050786030 230.0
32.055709886 200.0
32.060633742 198.0
32.065557598 239.0
32.070481454 258.0
32.075405310 278.0
32.080329166 230.0
32.085253022 261.0
32.090176878 256.0
32.095100734 261.0
32.100024590 266.0
32.104948446 277.0
32.109872302 262.0
32.114796158 282.0
32.119720014 274.0
32.124643870 274.0
32.129567726 283.0
32.134491582 270.0
32.139415438 247.0
32.144339294 235.0
32.149263150 228.0
32.154187006 246.0
32.159110862 229.0
32.164034718 229.0
32.168958574 200.0
32.173882430 203.0
32.178806286 159.0
32.183730142 205.0
32.188653998 167.0
32.193577854 153.0
32.198501710 178.0
32.203425566 173.0
32.208349422 155.0
32.213273278 141.0
32.218197134 155.0
32.223120990 156.0
32.228044846 147.0
32.232968702 140.0
32.237892558 146.0
32.242816414 133.0
32.247740270 132.0
32.252664127 150.0
32.257587983 152.0
32.262511839 123.0
32.267435695 154.0
32.272359551 119.0
32.277283407 157.0
32.282207263 137.0
32.287131119 136.0
32.292054975 106.0
32.296978831 131.0
32.301902687 108.0
32.306826543 130.0
32.311750399 128.0
32.316674255 127.0
32.321598111 127.0
32.326521967 115.0
32.331445823 125.0
32.336369679 124.0
32.341293535 120.0
32.346217391 130.0
32.351141247 117.0
32.356065103 134.0
32.360988959 117.0
32.365912815 124.0
32.370836671 117.0
32.375760527 116.0
32.380684383 119.0
32.385608239 133.0
32.390532095 121.0
32.395455951 113.0
32.400379807 121.0
32.405303663 126.0
32.410227519 111.0
32.415151375 102.0
32.420075231 128.0
32.424999087 91.0
32.429922943 110.0
32.434846799 114.0
32.439770655 94.0
32.444694511 114.0
32.449618367 104.0
32.454542223 102.0
32.459466079 153.0
32.464389935 129.0
32.469313791 122.0
32.474237647 118.0
32.479161503 127.0
32.484085359 109.0
32.489009215 130.0
32.493933071 122.0
32.498856927 124.0
32.503780783 116.0
32.508704639 134.0
32.513628495 109.0
32.518552351 129.0
32.523476207 129.0
32.528400063 110.0
32.533323919 119.0
32.538247775 127.0
32.543171631 135.0
32.548095487 122.0
32.553019343 108.0
32.557943199 117.0
32.562867055 93.0
32.567790911 122.0
32.572714767 134.0
32.577638623 119.0
32.582562479 127.0
32.587486335 105.0
32.592410191 118.0
32.597334047 110.0
32.602257903 115.0
32.607181759 134.0
32.612105615 114.0
32.617029471 120.0
32.621953327 120.0
32.626877183 139.0
32.631801039 129.0
32.636724895 109.0
32.641648751 115.0
32.646572607 114.0
32.651496463 125.0
32.656420319 107.0
32.661344175 124.0
32.666268031 115.0
32.671191887 108.0
32.676115743 152.0
32.681039599 121.0
32.685963455 102.0
32.690887311 101.0
32.695811167 112.0
32.700735023 125.0
32.705658879 123.0
32.710582735 132.0
32.715506591 125.0
32.720430447 117.0
32.725354303 147.0
32.730278159 119.0
32.735202015 129.0
32.740125871 116.0
32.745049727 113.0
32.749973583 120.0
32.754897440 104.0
32.759821296 121.0
32.764745152 110.0
32.769669008 112.0
32.774592864 115.0
32.779516720 116.0
32.784440576 121.0
32.789364432 111.0
32.794288288 121.0
32.799212144 112.0
32.804136000 120.0
32.809059856 132.0
32.813983712 112.0
32.818907568 109.0
32.823831424 127.0
32.828755280 121.0
32.833679136 122.0
32.838602992 116.0
32.843526848 113.0
32.848450704 115.0
32.853374560 112.0
32.858298416 97.0
32.863222272 109.0
32.868146128 126.0
32.873069984 124.0
32.877993840 98.0
32.882917696 111.0
32.887841552 113.0
32.892765408 115.0
32.897689264 109.0
32.902613120 141.0
32.907536976 108.0
32.912460832 110.0
32.917384688 107.0
32.922308544 119.0
32.927232400 91.0
32.932156256 114.0
32.937080112 123.0
32.942003968 91.0
32.946927824 138.0
32.951851680 115.0
32.956775536 118.0
32.961699392 111.0
32.966623248 130.0
32.971547104 106.0
32.976470960 117.0
32.981394816 129.0
32.986318672 104.0
32.991242528 102.0
32.996166384 132.0
33.001090240 99.0
33.006014096 110.0
33.010937952 110.0
33.015861808 122.0
33.020785664 144.0
33.025709520 107.0
33.030633376 124.0
33.035557232 105.0
33.040481088 116.0
33.045404944 121.0
33.050328800 120.0
33.055252656 129.0
33.060176512 130.0
33.065100368 103.0
33.070024224 119.0
33.074948080 135.0
33.079871936 117.0
33.084795792 119.0
33.089719648 115.0
33.094643504 100.0
33.099567360 115.0
33.104491216 124.0
33.109415072 104.0
33.114338928 127.0
33.119262784 121.0
33.124186640 124.0
33.129110496 118.0
33.134034352 122.0
33.138958208 115.0
33.143882064 121.0
33.148805920 108.0
33.153729776 114.0
33.158653632 104.0
33.163577488 128.0
33.168501344 133.0
33.173425200 131.0
33.178349056 121.0
33.183272912 109.0
33.188196768 133.0
33.193120624 131.0
33.198044480 114.0
33.202968336 124.0
33.207892192 125.0
33.212816048 134.0
33.217739904 134.0
33.222663760 107.0
33.227587616 130.0
33.232511472 120.0
33.237435328 125.0
33.242359184 124.0
33.247283040 111.0
33.252206897 120.0
33.257130753 126.0
33.262054609 121.0
33.266978465 123.0
33.271902321 115.0
33.276826177 114.0
33.281750033 121.0
33.286673889 102.0
33.291597745 103.0
33.296521601 122.0
33.301445457 103.0
33.306369313 123.0
33.311293169 105.0
33.316217025 102.0
33.321140881 125.0
33.326064737 126.0
33.330988593 110.0
33.335912449 122.0
33.340836305 118.0
33.345760161 128.0
33.350684017 102.0
33.355607873 130.0
33.360531729 131.0
33.365455585 112.0
33.370379441 111.0
33.375303297 133.0
33.380227153 117.0
33.385151009 113.0
33.390074865 113.0
33.394998721 135.0
33.399922577 109.0
33.404846433 117.0
33.409770289 118.0
33.414694145 129.0
33.419618001 115.0
33.424541857 127.0
33.429465713 119.0
33.434389569 151.0
33.439313425 126.0
33.444237281 132.0
33.449161137 115.0
33.454084993 118.0
33.459008849 125.0
33.463932705 130.0
33.468856561 120.0
33.473780417 145.0
33.478704273 115.0
33.483628129 135.0
33.488551985 114.0
33.493475841 134.0
33.498399697 118.0
33.503323553 111.0
33.508247409 125.0
33.513171265 118.0
33.518095121 116.0
33.523018977 133.0
33.527942833 127.0
33.532866689 113.0
33.537790545 154.0
33.542714401 120.0
33.547638257 118.0
33.552562113 145.0
33.557485969 115.0
33.562409825 127.0
33.567333681 108.0
33.572257537 115.0
33.577181393 119.0
33.582105249 124.0
33.587029105 134.0
33.591952961 128.0
33.596876817 128.0
33.601800673 117.0
33.606724529 130.0
33.611648385 110.0
33.616572241 100.0
33.621496097 153.0
33.626419953 131.0
33.631343809 129.0
33.636267665 129.0
33.641191521 135.0
33.646115377 134.0
33.651039233 130.0
33.655963089 116.0
33.660886945 114.0
33.665810801 134.0
33.670734657 154.0
33.675658513 142.0
33.680582369 132.0
33.685506225 130.0
33.690430081 147.0
33.695353937 139.0
33.700277793 129.0
33.705201649 141.0
33.710125505 132.0
33.715049361 145.0
33.719973217 135.0
33.724897073 121.0
33.729820929 138.0
33.734744785 131.0
33.739668641 138.0
33.744592497 141.0
33.749516353 149.0
33.754440210 143.0
33.759364066 127.0
33.764287922 144.0
33.769211778 118.0
33.774135634 129.0
33.779059490 137.0
33.783983346 126.0
33.788907202 141.0
33.793831058 133.0
33.798754914 147.0
33.803678770 115.0
33.808602626 139.0
33.813526482 143.0
33.818450338 131.0
33.823374194 155.0
33.828298050 144.0
33.833221906 148.0
33.838145762 143.0
33.843069618 141.0
33.847993474 137.0
33.852917330 131.0
33.857841186 168.0
33.862765042 169.0
33.867688898 177.0
33.872612754 180.0
33.877536610 155.0
33.882460466 171.0
33.887384322 178.0
33.892308178 165.0
33.897232034 214.0
33.902155890 203.0
33.907079746 210.0
33.912003602 296.0
33.916927458 327.0
33.921851314 410.0
33.926775170 506.0
33.931699026 641.0
33.936622882 770.0
33.941546738 918.0
33.946470594 1107.0
33.951394450 1127.0
33.956318306 1276.0
33.961242162 1310.0
33.966166018 1339.0
33.971089874 1272.0
33.976013730 1303.0
33.980937586 1170.0
33.985861442 1094.0
33.990785298 971.0
33.995709154 811.0
34.000633010 651.0
34.005556866 568.0
34.010480722 453.0
34.015404578 381.0
34.020328434 389.0
34.025252290 334.0
34.030176146 272.0
34.035100002 239.0
34.040023858 266.0
34.044947714 274.0
34.049871570 200.0
34.054795426 211.0
34.059719282 194.0
34.064643138 208.0
34.069566994 220.0
34.074490850 199.0
34.079414706 192.0
34.084338562 192.0
34.089262418 160.0
34.094186274 175.0
34.099110130 198.0
34.104033986 180.0
34.108957842 190.0
34.113881698 163.0
34.118805554 191.0
34.123729410 172.0
34.128653266 178.0
34.133577122 147.0
34.138500978 164.0
34.143424834 155.0
34.148348690 158.0
34.153272546 167.0
34.158196402 172.0
34.163120258 193.0
34.168044114 176.0
34.172967970 186.0
34.177891826 163.0
34.182815682 173.0
34.187739538 155.0
34.192663394 154.0
34.197587250 165.0
34.202511106 171.0
34.207434962 174.0
34.212358818 165.0
34.217282674 174.0
34.222206530 177.0
34.227130386 170.0
34.232054242 178.0
34.236978098 169.0
34.241901954 157.0
34.246825810 161.0
34.251749667 169.0
34.256673523 171.0
34.261597379 138.0
34.266521235 173.0
34.271445091 155.0
34.276368947 169.0
34.281292803 153.0
34.286216659 168.0
34.291140515 161.0
34.296064371 189.0
34.300988227 151.0
34.305912083 173.0
34.310835939 166.0
34.315759795 163.0
34.320683651 170.0
34.325607507 181.0
34.330531363 196.0
34.335455219 165.0
34.340379075 172.0
34.345302931 170.0
34.350226787 172.0
34.355150643 175.0
34.360074499 178.0
34.364998355 205.0
34.369922211 175.0
34.374846067 168.0
34.379769923 178.0
34.384693779 154.0
34.389617635 175.0
34.394541491 172.0
34.399465347 192.0
34.404389203 185.0
34.409313059 180.0
34.414236915 193.0
34.419160771 185.0
34.424084627 191.0
34.429008483 189.0
34.433932339 192.0
34.438856195 196.0
34.443780051 179.0
34.448703907 165.0
34.453627763 160.0
34.458551619 196.0
34.463475475 198.0
34.468399331 188.0
34.473323187 192.0
34.478247043 164.0
34.483170899 180.0
34.488094755 171.0
34.493018611 201.0
34.497942467 196.0
34.502866323 209.0
34.507790179 192.0
34.512714035 189.0
34.517637891 192.0
34.522561747 212.0
34.527485603 197.0
34.532409459 176.0
34.537333315 208.0
34.542257171 200.0
34.547181027 174.0
34.552104883 181.0
34.557028739 211.0
34.561952595 218.0
34.566876451 186.0
34.571800307 203.0
34.576724163 201.0
34.581648019 202.0
34.586571875 202.0
34.591495731 210.0
34.596419587 224.0
34.601343443 229.0
34.606267299 214.0
34.611191155 203.0
34.616115011 228.0
34.621038867 226.0
34.625962723 208.0
34.630886579 236.0
34.635810435 183.0
34.640734291 200.0
34.645658147 225.0
34.650582003 226.0
34.655505859 228.0
34.660429715 244.0
34.665353571 224.0
34.670277427 240.0
34.675201283 257.0
34.680125139 275.0
34.685048995 274.0
34.689972851 229.0
34.694896707 223.0
34.699820563 261.0
34.704744419 282.0
34.709668275 260.0
34.714592131 226.0
34.719515987 228.0
34.724439843 272.0
34.729363699 255.0
34.734287555 231.0
34.739211411 229.0
34.744135267 269.0
34.749059123 231.0
34.753982980 279.0
34.758906836 228.0
34.763830692 234.0
34.768754548 264.0
34.773678404 256.0
34.778602260 295.0
34.783526116 283.0
34.788449972 309.0
34.793373828 273.0
34.798297684 304.0
34.803221540 285.0
34.808145396 259.0
34.813069252 296.0
34.817993108 300.0
34.822916964 321.0
34.827840820 290.0
34.832764676 291.0
34.837688532 300.0
34.842612388 295.0
34.847536244 319.0
34.852460100 317.0
34.857383956 308.0
34.862307812 318.0
34.867231668 285.0
34.872155524 349.0
34.877079380 307.0
34.882003236 281.0
34.886927092 331.0
34.891850948 334.0
34.896774804 322.0
34.901698660 317.0
34.906622516 356.0
34.911546372 325.0
34.916470228 362.0
34.921394084 347.0
34.926317940 336.0
34.931241796 375.0
34.936165652 373.0
34.941089508 384.0
34.946013364 357.0
34.950937220 390.0
34.955861076 364.0
34.960784932 408.0
34.965708788 372.0
34.970632644 406.0
34.975556500 385.0
34.980480356 417.0
34.985404212 368.0
34.990328068 433.0
34.995251924 376.0
35.000175780 379.0
35.005099636 401.0
35.010023492 400.0
35.014947348 418.0
35.019871204 458.0
35.024795060 457.0
35.029718916 455.0
35.034642772 423.0
35.039566628 433.0
35.044490484 444.0
35.049414340 455.0
35.054338196 450.0
35.059262052 444.0
35.064185908 458.0
35.069109764 459.0
35.074033620 482.0
35.078957476 487.0
35.083881332 495.0
35.088805188 475.0
35.093729044 474.0
35.098652900 498.0
35.103576756 502.0
35.108500612 548.0
35.113424468 493.0
35.118348324 548.0
35.123272180 573.0
35.128196036 502.0
35.133119892 515.0
35.138043748 571.0
35.142967604 558.0
35.147891460 557.0
35.152815316 568.0
35.157739172 603.0
35.162663028 600.0
35.167586884 586.0
35.172510740 631.0
35.177434596 631.0
35.182358452 660.0
35.187282308 658.0
35.192206164 645.0
35.197130020 713.0
35.202053876 682.0
35.206977732 706.0
35.211901588 703.0
35.216825444 738.0
35.221749300 756.0
35.226673156 745.0
35.231597012 709.0
35.236520868 774.0
35.241444724 753.0
35.246368580 760.0
35.251292437 795.0
35.256216293 812.0
35.261140149 874.0
35.266064005 895.0
35.270987861 893.0
35.275911717 913.0
35.280835573 913.0
35.285759429 904.0
35.290683285 959.0
35.295607141 1036.0
35.300530997 1019.0
35.305454853 1024.0
35.310378709 1098.0
35.315302565 1077.0
35.320226421 1089.0
35.325150277 1136.0
35.330074133 1176.0
35.334997989 1232.0
35.339921845 1228.0
35.344845701 1333.0
35.349769557 1386.0
35.354693413 1439.0
35.359617269 1482.0
35.364541125 1527.0
35.369464981 1538.0
35.374388837 1654.0
35.379312693 1766.0
35.384236549 1899.0
35.389160405 1873.0
35.394084261 1958.0
35.399008117 2023.0
35.403931973 2126.0
35.408855829 2274.0
35.413779685 2302.0
35.418703541 2485.0
35.423627397 2468.0
35.428551253 2739.0
35.433475109 2785.0
35.438398965 3004.0
35.443322821 3065.0
35.448246677 3386.0
35.453170533 3517.0
35.458094389 3885.0
35.463018245 3995.0
35.467942101 4167.0
35.472865957 4501.0
35.477789813 4781.0
35.482713669 5176.0
35.487637525 5366.0
35.492561381 5946.0
35.497485237 6389.0
35.502409093 6693.0
35.507332949 7250.0
35.512256805 7775.0
35.517180661 8380.0
35.522104517 9267.0
35.527028373 9872.0
35.531952229 10741.0
35.536876085 11496.0
35.541799941 12645.0
35.546723797 13472.0
35.551647653 14974.0
35.556571509 16430.0
35.561495365 17579.0
35.566419221 19086.0
35.571343077 20519.0
35.576266933 22339.0
35.581190789 24143.0
35.586114645 25923.0
35.591038501 27878.0
35.595962357 30011.0
35.600886213 32013.0
35.605810069 34391.0
35.610733925 36136.0
35.615657781 37744.0
35.620581637 39865.0
35.625505493 41428.0
35.630429349 43106.0
35.635353205 44208.0
35.640277061 44684.0
35.645200917 45391.0
35.650124773 46031.0
35.655048629 46201.0
35.659972485 46324.0
35.664896341 46104.0
35.669820197 44994.0
35.674744053 44143.0
35.679667909 43565.0
35.684591765 42981.0
35.689515621 41942.0
35.694439477 41241.0
35.699363333 40346.0
35.704287189 39184.0
35.709211045 38505.0
35.714134901 37556.0
35.719058757 36646.0
35.723982613 35751.0
35.728906469 34801.0
35.733830325 33520.0
35.738754181 32591.0
35.743678037 31658.0
35.748601893 30127.0
35.753525750 28717.0
35.758449606 27138.0
35.763373462 25987.0
35.768297318 24631.0
35.773221174 23446.0
35.778145030 21981.0
35.783068886 20309.0
35.787992742 19146.0
35.792916598 17997.0
35.797840454 16633.0
35.802764310 15764.0
35.807688166 14480.0
35.812612022 13670.0
35.817535878 12832.0
35.822459734 11717.0
35.827383590 11063.0
35.832307446 10335.0
35.837231302 9850.0
35.842155158 8847.0
35.847079014 8493.0
35.852002870 7935.0
35.856926726 7431.0
35.861850582 7031.0
35.866774438 6573.0
35.871698294 6321.0
35.876622150 5982.0
35.881546006 5662.0
35.886469862 5320.0
35.891393718 5257.0
35.896317574 4724.0
35.901241430 4470.0
35.906165286 4568.0
35.911089142 4284.0
35.916012998 4054.0
35.920936854 3872.0
35.925860710 3778.0
35.930784566 3547.0
35.935708422 3417.0
35.940632278 3447.0
35.945556134 3227.0
35.950479990 3201.0
35.955403846 2935.0
35.960327702 2898.0
35.965251558 2876.0
35.970175414 2808.0
35.975099270 2689.0
35.980023126 2625.0
35.984946982 2523.0
35.989870838 2414.0
35.994794694 2410.0
35.999718550 2383.0
36.004642406 2292.0
36.009566262 2235.0
36.014490118 2153.0
36.019413974 2061.0
36.024337830 1970.0
36.029261686 1971.0
36.034185542 1986.0
36.039109398 1925.0
36.044033254 1843.0
36.048957110 1843.0
36.053880966 1718.0
36.058804822 1771.0
36.063728678 1694.0
36.068652534 1642.0
36.073576390 1685.0
36.078500246 1543.0
36.083424102 1591.0
36.088347958 1590.0
36.093271814 1493.0
36.098195670 1520.0
36.103119526 1434.0
36.108043382 1430.0
36.112967238 1481.0
36.117891094 1376.0
36.122814950 1366.0
36.127738806 1321.0
36.132662662 1238.0
36.137586518 1282.0
36.142510374 1242.0
36.147434230 1245.0
36.152358086 1290.0
36.157281942 1106.0
36.162205798 1219.0
36.167129654 1108.0
36.172053510 1127.0
36.176977366 1100.0
36.181901222 1069.0
36.186825078 1023.0
36.191748934 1059.0
36.196672790 1082.0
36.201596646 1031.0
36.206520502 956.0
36.211444358 952.0
36.216368214 994.0
36.221292070 929.0
36.226215926 1010.0
36.231139782 898.0
36.236063638 936.0
36.240987494 867.0
36.245911350 907.0
36.250835207 840.0
36.255759063 781.0
36.260682919 837.0
36.265606775 865.0
36.270530631 820.0
36.275454487 832.0
36.280378343 797.0
36.285302199 745.0
36.290226055 769.0
36.295149911 761.0
36.300073767 746.0
36.304997623 717.0
36.309921479 707.0
36.314845335 728.0
36.319769191 697.0
36.324693047 666.0
36.329616903 687.0
36.334540759 646.0
36.339464615 672.0
36.344388471 647.0
36.349312327 653.0
36.354236183 641.0
36.359160039 636.0
36.364083895 665.0
36.369007751 631.0
36.373931607 634.0
36.378855463 623.0
36.383779319 623.0
36.388703175 572.0
36.393627031 588.0
36.398550887 599.0
36.403474743 568.0
36.408398599 587.0
36.413322455 562.0
36.418246311 597.0
36.423170167 498.0
36.428094023 530.0
36.433017879 501.0
36.437941735 510.0
36.442865591 498.0
36.447789447 532.0
36.452713303 531.0
36.457637159 518.0
36.462561015 551.0
36.467484871 546.0
36.472408727 497.0
36.477332583 472.0
36.482256439 528.0
36.487180295 468.0
36.492104151 488.0
36.497028007 461.0
36.501951863 454.0
36.506875719 458.0
36.511799575 455.0
36.516723431 466.0
36.521647287 463.0
36.526571143 431.0
36.531494999 471.0
36.536418855 450.0
36.541342711 478.0
36.546266567 437.0
36.551190423 456.0
36.556114279 416.0
36.561038135 446.0
36.565961991 444.0
36.570885847 432.0
36.575809703 438.0
36.580733559 369.0
36.585657415 424.0
36.590581271 418.0
36.595505127 420.0
36.600428983 417.0
36.605352839 429.0
36.610276695 424.0
36.615200551 415.0
36.620124407 416.0
36.625048263 403.0
36.629972119 445.0
36.634895975 404.0
36.639819831 416.0
36.644743687 438.0
36.649667543 425.0
36.654591399 419.0
36.659515255 403.0
36.664439111 410.0
36.669362967 418.0
36.674286823 423.0
36.679210679 395.0
36.684134535 377.0
36.689058391 425.0
36.693982247 434.0
36.698906103 423.0
36.703829959 431.0
36.708753815 407.0
36.713677671 445.0
36.718601527 387.0
36.723525383 391.0
36.728449239 406.0
36.733373095 378.0
36.738296951 387.0
36.743220807 418.0
36.748144663 423.0
36.753068520 425.0
36.757992376 396.0
36.762916232 425.0
36.767840088 405.0
36.772763944 434.0
36.777687800 418.0
36.782611656 404.0
36.787535512 430.0
36.792459368 447.0
36.797383224 429.0
36.802307080 435.0
36.807230936 426.0
36.812154792 402.0
36.817078648 442.0
36.822002504 433.0
36.826926360 459.0
36.831850216 499.0
36.836774072 438.0
36.841697928 411.0
36.846621784 427.0
36.851545640 469.0
36.856469496 399.0
36.861393352 450.0
36.866317208 462.0
36.871241064 446.0
36.876164920 455.0
36.881088776 444.0
36.886012632 444.0
36.890936488 448.0
36.895860344 467.0
36.900784200 472.0
36.905708056 450.0
36.910631912 518.0
36.915555768 469.0
36.920479624 448.0
36.925403480 465.0
36.930327336 514.0
36.935251192 472.0
36.940175048 495.0
36.945098904 450.0
36.950022760 476.0
36.954946616 514.0
36.959870472 530.0
36.964794328 512.0
36.969718184 472.0
36.974642040 477.0
36.979565896 510.0
36.984489752 493.0
36.989413608 491.0
36.994337464 534.0
36.999261320 526.0
37.004185176 514.0
37.009109032 507.0
37.014032888 504.0
37.018956744 527.0
37.023880600 513.0
37.028804456 533.0
37.033728312 516.0
37.038652168 535.0
37.043576024 504.0
37.048499880 579.0
37.053423736 562.0
37.058347592 546.0
37.063271448 555.0
37.068195304 553.0
37.073119160 551.0
37.078043016 580.0
37.082966872 580.0
37.087890728 553.0
37.092814584 579.0
37.097738440 589.0
37.102662296 608.0
37.107586152 579.0
37.112510008 592.0
37.117433864 643.0
37.122357720 563.0
37.127281576 629.0
37.132205432 598.0
37.137129288 603.0
37.142053144 619.0
37.146977000 615.0
37.151900856 545.0
37.156824712 626.0
37.161748568 639.0
37.166672424 690.0
37.171596280 629.0
37.176520136 615.0
37.181443992 642.0
37.186367848 616.0
37.191291704 646.0
37.196215560 653.0
37.201139416 672.0
37.206063272 665.0
37.210987128 659.0
37.215910984 648.0
37.220834840 705.0
37.225758696 722.0
37.230682552 707.0
37.235606408 668.0
37.240530264 688.0
37.245454120 686.0
37.250377977 725.0
37.255301833 709.0
37.260225689 761.0
37.265149545 693.0
37.270073401 737.0
37.274997257 764.0
37.279921113 824.0
37.284844969 797.0
37.289768825 795.0
37.294692681 802.0
37.299616537 842.0
37.304540393 836.0
37.309464249 892.0
37.314388105 854.0
37.319311961 913.0
37.324235817 899.0
37.329159673 910.0
37.334083529 919.0
37.339007385 918.0
37.343931241 958.0
37.348855097 948.0
37.353778953 973.0
37.358702809 970.0
37.363626665 958.0
37.368550521 991.0
37.373474377 1017.0
37.378398233 1051.0
37.383322089 1048.0
37.388245945 1039.0
37.393169801 1142.0
37.398093657 1141.0
37.403017513 1127.0
37.407941369 1147.0
37.412865225 1153.0
37.417789081 1207.0
37.422712937 1168.0
37.427636793 1269.0
37.432560649 1286.0
37.437484505 1265.0
37.442408361 1303.0
37.447332217 1289.0
37.452256073 1298.0
37.457179929 1401.0
37.462103785 1496.0
37.467027641 1483.0
37.471951497 1562.0
37.476875353 1602.0
37.481799209 1650.0
37.486723065 1873.0
37.491646921 1932.0
37.496570777 2046.0
37.501494633 2226.0
37.506418489 2381.0
37.511342345 2702.0
37.516266201 2756.0
37.521190057 3141.0
37.526113913 3385.0
37.531037769 3526.0
37.535961625 3917.0
37.540885481 4097.0
37.545809337 4287.0
37.550733193 4444.0
37.555657049 4704.0
37.560580905 4869.0
37.565504761 4836.0
37.570428617 4792.0
37.575352473 5030.0
37.580276329 4803.0
37.585200185 4900.0
37.590124041 5029.0
37.595047897 4989.0
37.599971753 5105.0
37.604895609 5206.0
37.609819465 5236.0
37.614743321 5595.0
37.619667177 5842.0
37.624591033 6439.0
37.629514889 6836.0
37.634438745 7620.0
37.639362601 8410.0
37.644286457 9765.0
37.649210313 11140.0
37.654134169 13139.0
37.659058025 15360.0
37.663981881 19037.0
37.668905737 24233.0
37.673829593 31790.0
37.678753449 45000.0
37.683677305 70532.0
37.688601161 117601.0
37.693525017 180477.0
37.698448873 239092.0
37.703372729 274599.0
37.708296585 296854.0
37.713220441 309328.0
37.718144297 317023.0
37.723068153 321970.0
37.727992009 322489.0
37.732915865 317073.0
37.737839721 304801.0
37.742763577 275176.0
37.747687433 221818.0
37.752611290 155216.0
37.757535146 101237.0
37.762459002 70365.0
37.767382858 53300.0
37.772306714 46008.0
37.777230570 46836.0
37.782154426 57186.0
37.787078282 78797.0
37.792002138 104973.0
37.796925994 129823.0
37.801849850 146911.0
37.806773706 156354.0
37.811697562 160998.0
37.816621418 163856.0
37.821545274 163889.0
37.826469130 162225.0
37.831392986 157793.0
37.836316842 147678.0
37.841240698 130377.0
37.846164554 103352.0
37.851088410 73460.0
37.856012266 48693.0
37.860936122 33001.0
37.865859978 23011.0
37.870783834 17486.0
37.875707690 13495.0
37.880631546 11291.0
37.885555402 9284.0
37.890479258 8200.0
37.895403114 7167.0
37.900326970 6359.0
37.905250826 5789.0
37.910174682 5330.0
37.915098538 4934.0
37.920022394 4521.0
37.924946250 4151.0
37.929870106 4019.0
37.934793962 3746.0
37.939717818 3488.0
37.944641674 3351.0
37.949565530 3249.0
37.954489386 2964.0
37.959413242 2888.0
37.964337098 2644.0
37.969260954 2476.0
37.974184810 2486.0
37.979108666 2360.0
37.984032522 2303.0
37.988956378 2155.0
37.993880234 2015.0
37.998804090 1995.0
38.003727946 1931.0
38.008651802 1996.0
38.013575658 1850.0
38.018499514 1742.0
38.023423370 1740.0
38.028347226 1607.0
38.033271082 1630.0
38.038194938 1576.0
38.043118794 1575.0
38.048042650 1469.0
38.052966506 1408.0
38.057890362 1417.0
38.062814218 1365.0
38.067738074 1328.0
38.072661930 1285.0
38.077585786 1367.0
38.082509642 1341.0
38.087433498 1203.0
38.092357354 1224.0
38.097281210 1193.0
38.102205066 1135.0
38.107128922 1143.0
38.112052778 1115.0
38.116976634 1115.0
38.121900490 1112.0
38.126824346 1023.0
38.131748202 1034.0
38.136672058 1053.0
38.141595914 993.0
38.146519770 958.0
38.151443626 998.0
38.156367482 954.0
38.161291338 874.0
38.166215194 898.0
38.171139050 900.0
38.176062906 881.0
38.180986762 856.0
38.185910618 854.0
38.190834474 830.0
38.195758330 826.0
38.200682186 795.0
38.205606042 792.0
38.210529898 784.0
38.215453754 708.0
38.220377610 744.0
38.225301466 766.0
38.230225322 689.0
38.235149178 720.0
38.240073034 702.0
38.244996890 732.0
38.249920747 683.0
38.254844603 620.0
38.259768459 638.0
38.264692315 626.0
38.269616171 606.0
38.274540027 566.0
38.279463883 599.0
38.284387739 617.0
38.289311595 580.0
38.294235451 586.0
38.299159307 570.0
38.304083163 513.0
38.309007019 590.0
38.313930875 549.0
38.318854731 547.0
38.323778587 534.0
38.328702443 511.0
38.333626299 506.0
38.338550155 532.0
38.343474011 461.0
38.348397867 495.0
38.353321723 485.0
38.358245579 462.0
38.363169435 458.0
38.368093291 458.0
38.373017147 471.0
38.377941003 438.0
38.382864859 460.0
38.387788715 411.0
38.392712571 422.0
38.397636427 427.0
38.402560283 415.0
38.407484139 388.0
38.412407995 403.0
38.417331851 366.0
38.422255707 398.0
38.427179563 394.0
38.432103419 374.0
38.437027275 393.0
38.441951131 404.0
38.446874987 417.0
38.451798843 355.0
38.456722699 319.0
38.461646555 325.0
38.466570411 360.0
38.471494267 337.0
38.476418123 336.0
38.481341979 336.0
38.486265835 335.0
38.491189691 327.0
38.496113547 356.0
38.501037403 357.0
38.505961259 328.0
38.510885115 299.0
38.515808971 312.0
38.520732827 299.0
38.525656683 303.0
38.530580539 305.0
38.535504395 316.0
38.540428251 280.0
38.545352107 306.0
38.550275963 291.0
38.555199819 273.0
38.560123675 284.0
38.565047531 295.0
38.569971387 283.0
38.574895243 277.0
38.579819099 287.0
38.584742955 262.0
38.589666811 300.0
38.594590667 281.0
38.599514523 279.0
38.604438379 288.0
38.609362235 299.0
38.614286091 259.0
38.619209947 228.0
38.624133803 261.0
38.629057659 266.0
38.633981515 282.0
38.638905371 282.0
38.643829227 237.0
38.648753083 216.0
38.653676939 257.0
38.658600795 225.0
38.663524651 211.0
38.668448507 232.0
38.673372363 260.0
38.678296219 223.0
38.683220075 238.0
38.688143931 211.0
38.693067787 209.0
38.697991643 213.0
38.702915499 217.0
38.707839355 220.0
38.712763211 194.0
38.717687067 200.0
38.722610923 204.0
38.727534779 210.0
38.732458635 222.0
38.737382491 226.0
38.742306347 209.0
38.747230203 219.0
38.752154060 191.0
38.757077916 213.0
38.762001772 180.0
38.766925628 193.0
38.771849484 212.0
38.776773340 208.0
38.781697196 191.0
38.786621052 206.0
38.791544908 196.0
38.796468764 205.0
38.801392620 211.0
38.806316476 198.0
38.811240332 216.0
38.816164188 184.0
38.821088044 185.0
38.826011900 202.0
38.830935756 172.0
38.835859612 164.0
38.840783468 184.0
38.845707324 196.0
38.850631180 201.0
38.855555036 173.0
38.860478892 171.0
38.865402748 199.0
38.870326604 191.0
38.875250460 196.0
38.880174316 165.0
38.885098172 165.0
38.890022028 180.0
38.894945884 161.0
38.899869740 167.0
38.904793596 150.0
38.909717452 183.0
38.914641308 200.0
38.919565164 172.0
38.924489020 165.0
38.929412876 175.0
38.934336732 157.0
38.939260588 187.0
38.944184444 170.0
38.949108300 150.0
38.954032156 165.0
38.958956012 170.0
38.963879868 163.0
38.968803724 154.0
38.973727580 177.0
38.978651436 178.0
38.983575292 173.0
38.988499148 175.0
38.993423004 152.0
38.998346860 176.0
39.003270716 183.0
39.008194572 148.0
39.013118428 196.0
39.018042284 187.0
39.022966140 166.0
39.027889996 170.0
39.032813852 169.0
39.037737708 151.0
39.042661564 164.0
39.047585420 155.0
39.052509276 146.0
39.057433132 154.0
39.062356988 156.0
39.067280844 162.0
39.072204700 156.0
39.077128556 157.0
39.082052412 147.0
39.086976268 150.0
39.091900124 200.0
39.096823980 141.0
39.101747836 175.0
39.106671692 162.0
39.111595548 136.0
39.116519404 154.0
39.121443260 153.0
39.126367116 150.0
39.131290972 155.0
39.136214828 176.0
39.141138684 154.0
39.146062540 151.0
39.150986396 137.0
39.155910252 147.0
39.160834108 158.0
39.165757964 159.0
39.170681820 158.0
39.175605676 155.0
39.180529532 134.0
39.185453388 151.0
39.190377244 156.0
39.195301100 156.0
39.200224956 156.0
39.205148812 154.0
39.210072668 171.0
39.214996524 134.0
39.219920380 144.0
39.224844236 133.0
39.229768092 141.0
39.234691948 124.0
39.239615804 158.0
39.244539660 158.0
39.249463517 146.0
39.254387373 141.0
39.259311229 138.0
39.264235085 143.0
39.269158941 145.0
39.274082797 140.0
39.279006653 141.0
39.283930509 151.0
39.288854365 134.0
39.293778221 152.0
39.298702077 146.0
39.303625933 161.0
39.308549789 143.0
39.313473645 148.0
39.318397501 133.0
39.323321357 137.0
39.328245213 151.0
39.333169069 154.0
39.338092925 146.0
39.343016781 143.0
39.347940637 134.0
39.352864493 150.0
39.357788349 143.0
39.362712205 122.0
39.367636061 127.0
39.372559917 133.0
39.377483773 134.0
39.382407629 140.0
39.387331485 140.0
39.392255341 143.0
39.397179197 127.0
39.402103053 155.0
39.407026909 163.0
39.411950765 152.0
39.416874621 143.0
39.421798477 141.0
39.426722333 156.0
39.431646189 146.0
39.436570045 155.0
39.441493901 131.0
39.446417757 159.0
39.451341613 157.0
39.456265469 125.0
39.461189325 125.0
39.466113181 156.0
39.471037037 137.0
39.475960893 150.0
39.480884749 132.0
39.485808605 126.0
39.490732461 144.0
39.495656317 152.0
39.500580173 144.0
39.505504029 153.0
39.510427885 139.0
39.515351741 154.0
39.520275597 136.0
39.525199453 123.0
39.530123309 125.0
39.535047165 128.0
39.539971021 136.0
39.544894877 145.0
39.549818733 141.0
39.554742589 142.0
39.559666445 127.0
39.564590301 125.0
39.569514157 144.0
39.574438013 123.0
39.579361869 132.0
39.584285725 126.0
39.589209581 128.0
39.594133437 121.0
39.599057293 135.0
39.603981149 132.0
39.608905005 138.0
39.613828861 157.0
39.618752717 153.0
39.623676573 131.0
39.628600429 140.0
39.633524285 157.0
39.638448141 156.0
39.643371997 143.0
39.648295853 130.0
39.653219709 123.0
39.658143565 124.0
39.663067421 125.0
39.667991277 148.0
39.672915133 161.0
39.677838989 125.0
39.682762845 138.0
39.687686701 151.0
39.692610557 152.0
39.697534413 145.0
39.702458269 143.0
39.707382125 143.0
39.712305981 128.0
39.717229837 153.0
39.722153693 137.0
39.727077549 132.0
39.732001405 130.0
39.736925261 138.0
39.741849117 113.0
39.746772973 131.0
39.751696830 150.0
39.756620686 124.0
39.761544542 128.0
39.766468398 120.0
39.771392254 146.0
39.776316110 147.0
39.781239966 119.0
39.786163822 130.0
39.791087678 147.0
39.796011534 123.0
39.800935390 160.0
39.805859246 111.0
39.810783102 124.0
39.815706958 110.0
39.820630814 141.0
39.825554670 157.0
39.830478526 134.0
39.835402382 129.0
39.840326238 123.0
39.845250094 131.0
39.850173950 111.0
39.855097806 131.0
39.860021662 136.0
39.864945518 110.0
39.869869374 134.0
39.874793230 127.0
39.879717086 125.0
39.884640942 131.0
39.889564798 114.0
39.894488654 128.0
39.899412510 110.0
39.904336366 116.0
39.909260222 125.0
39.914184078 121.0
39.919107934 114.0
39.924031790 149.0
39.928955646 136.0
39.933879502 128.0
39.938803358 122.0
39.943727214 114.0
39.948651070 136.0
39.953574926 103.0
39.958498782 139.0
39.963422638 134.0
39.968346494 139.0
39.973270350 118.0
39.978194206 112.0
39.983118062 134.0
39.988041918 133.0
39.992965774 143.0
39.997889630 135.0
