30.002461930 79.0
30.007385786 63.0
30.012309642 71.0
30.017233498 62.0
30.022157354 64.0
30.027081210 51.0
30.032005066 67.0
30.036928922 74.0
30.041852778 57.0
30.046776634 61.0
30.051700490 64.0
30.056624346 60.0
30.061548202 65.0
30.066472058 70.0
30.071395914 58.0
30.076319770 54.0
30.081243626 62.0
30.086167482 67.0
30.091091338 68.0
30.096015194 74.0
30.100939050 62.0
30.105862906 60.0
30.110786762 66.0
30.115710618 61.0
30.120634474 75.0
30.125558330 73.0
30.130482186 55.0
30.135406042 52.0
30.140329898 69.0
30.145253754 58.0
30.150177610 54.0
30.155101466 61.0
30.160025322 49.0
30.164949178 44.0
30.169873034 72.0
30.174796890 74.0
30.179720746 70.0
30.184644602 75.0
30.189568458 68.0
30.194492314 65.0
30.199416170 56.0
30.204340026 61.0
30.209263882 75.0
30.214187738 60.0
30.219111594 69.0
30.224035450 66.0
30.228959306 62.0
30.233883162 70.0
30.238807018 71.0
30.243730874 70.0
30.248654730 78.0
30.253578587 75.0
30.258502443 57.0
30.263426299 68.0
30.268350155 58.0
30.273274011 64.0
30.278197867 61.0
30.283121723 75.0
30.288045579 74.0
30.292969435 54.0
30.297893291 61.0
30.302817147 73.0
30.307741003 71.0
30.312664859 54.0
30.317588715 67.0
30.322512571 69.0
30.327436427 62.0
30.332360283 54.0
30.337284139 69.0
30.342207995 71.0
30.347131851 68.0
30.352055707 77.0
30.356979563 73.0
30.361903419 62.0
30.366827275 59.0
30.371751131 59.0
30.376674987 84.0
30.381598843 60.0
30.386522699 67.0
30.391446555 72.0
30.396370411 74.0
30.401294267 74.0
30.406218123 68.0
30.411141979 66.0
30.416065835 59.0
30.420989691 50.0
30.425913547 76.0
30.430837403 80.0
30.435761259 62.0
30.440685115 45.0
30.445608971 67.0
30.450532827 63.0
30.455456683 51.0
30.460380539 64.0
30.465304395 66.0
30.470228251 58.0
30.475152107 73.0
30.480075963 67.0
30.484999819 53.0
30.489923675 59.0
30.494847531 57.0
30.499771387 62.0
30.504695243 66.0
30.509619099 66.0
30.514542955 56.0
30.519466811 67.0
30.524390667 71.0
30.529314523 69.0
30.534238379 64.0
30.539162235 72.0
30.544086091 60.0
30.549009947 60.0
30.553933803 78.0
30.558857659 75.0
30.563781515 76.0
30.568705371 58.0
30.573629227 62.0
30.578553083 72.0
30.583476939 76.0
30.588400795 61.0
30.593324651 67.0
30.598248507 70.0
30.603172363 61.0
30.608096219 64.0
30.613020075 85.0
30.617943931 75.0
30.622867787 68.0
30.627791643 70.0
30.632715499 65.0
30.637639355 57.0
30.642563211 66.0
30.647487067 69.0
30.652410923 72.0
30.657334779 80.0
30.662258635 67.0
30.667182491 70.0
30.672106347 76.0
30.677030203 56.0
30.681954059 70.0
30.686877915 72.0
30.691801771 51.0
30.696725627 67.0
30.701649483 62.0
30.706573339 62.0
30.711497195 68.0
30.716421051 66.0
30.721344907 64.0
30.726268763 57.0
30.731192619 64.0
30.736116475 84.0
30.741040331 61.0
30.745964187 64.0
30.750888043 63.0
30.755811900 65.0
30.760735756 65.0
30.765659612 67.0
30.770583468 68.0
30.775507324 71.0
30.780431180 56.0
30.785355036 73.0
30.790278892 71.0
30.795202748 71.0
30.800126604 78.0
30.805050460 74.0
30.809974316 60.0
30.814898172 65.0
30.819822028 53.0
30.824745884 73.0
30.829669740 55.0
30.834593596 62.0
30.839517452 70.0
30.844441308 67.0
30.849365164 62.0
30.854289020 61.0
30.859212876 71.0
30.864136732 71.0
30.869060588 65.0
30.873984444 64.0
30.878908300 72.0
30.883832156 59.0
30.888756012 55.0
30.893679868 57.0
30.898603724 68.0
30.903527580 63.0
30.908451436 73.0
30.913375292 65.0
30.918299148 62.0
30.923223004 64.0
30.928146860 76.0
30.933070716 60.0
30.937994572 67.0
30.942918428 75.0
30.947842284 66.0
30.952766140 64.0
30.957689996 50.0
30.962613852 74.0
30.967537708 66.0
30.972461564 76.0
30.977385420 64.0
30.982309276 72.0
30.987233132 75.0
30.992156988 79.0
30.997080844 65.0
31.002004700 72.0
31.006928556 71.0
31.011852412 61.0
31.016776268 71.0
31.021700124 56.0
31.026623980 58.0
31.031547836 68.0
31.036471692 73.0
31.041395548 59.0
31.046319404 80.0
31.051243260 69.0
31.056167116 81.0
31.061090972 62.0
31.066014828 68.0
31.070938684 71.0
31.075862540 61.0
31.080786396 80.0
31.085710252 60.0
31.090634108 82.0
31.095557964 73.0
31.100481820 62.0
31.105405676 64.0
31.110329532 75.0
31.115253388 72.0
31.120177244 68.0
31.125101100 74.0
31.130024956 83.0
31.134948812 70.0
31.139872668 61.0
31.144796524 67.0
31.149720380 62.0
31.154644236 74.0
31.159568092 66.0
31.164491948 70.0
31.169415804 74.0
31.174339660 61.0
31.179263516 72.0
31.184187372 54.0
31.189111228 74.0
31.194035084 67.0
31.198958940 75.0
31.203882796 73.0
31.208806652 55.0
31.213730508 67.0
31.218654364 62.0
31.223578220 63.0
31.228502076 62.0
31.233425932 73.0
31.238349788 61.0
31.243273644 58.0
31.248197500 76.0
31.253121357 59.0
31.258045213 57.0
31.262969069 65.0
31.267892925 46.0
31.272816781 75.0
31.277740637 54.0
31.282664493 73.0
31.287588349 84.0
31.292512205 85.0
31.297436061 73.0
31.302359917 66.0
31.307283773 63.0
31.312207629 66.0
31.317131485 67.0
31.322055341 76.0
31.326979197 70.0
31.331903053 81.0
31.336826909 60.0
31.341750765 73.0
31.346674621 68.0
31.351598477 72.0
31.356522333 69.0
31.361446189 72.0
31.366370045 65.0
31.371293901 60.0
31.376217757 54.0
31.381141613 73.0
31.386065469 88.0
31.390989325 59.0
31.395913181 76.0
31.400837037 71.0
31.405760893 69.0
31.410684749 70.0
31.415608605 57.0
31.420532461 77.0
31.425456317 75.0
31.430380173 71.0
31.435304029 80.0
31.440227885 57.0
31.445151741 59.0
31.450075597 75.0
31.454999453 57.0
31.459923309 57.0
31.464847165 60.0
31.469771021 84.0
31.474694877 62.0
31.479618733 81.0
31.484542589 52.0
31.489466445 78.0
31.494390301 73.0
31.499314157 55.0
31.504238013 69.0
31.509161869 64.0
31.514085725 58.0
31.519009581 78.0
31.523933437 59.0
31.528857293 65.0
31.533781149 59.0
31.538705005 51.0
31.543628861 70.0
31.548552717 52.0
31.553476573 66.0
31.558400429 76.0
31.563324285 85.0
31.568248141 55.0
31.573171997 63.0
31.578095853 69.0
31.583019709 76.0
31.587943565 60.0
31.592867421 66.0
31.597791277 82.0
31.602715133 72.0
31.607638989 62.0
31.612562845 48.0
31.617486701 67.0
31.622410557 74.0
31.627334413 55.0
31.632258269 71.0
31.637182125 64.0
31.642105981 69.0
31.647029837 77.0
31.651953693 68.0
31.656877549 77.0
31.661801405 65.0
31.666725261 61.0
31.671649117 63.0
31.676572973 77.0
31.681496829 59.0
31.686420685 73.0
31.691344541 71.0
31.696268397 67.0
31.701192253 82.0
31.706116109 59.0
31.711039965 72.0
31.715963821 43.0
31.720887677 75.0
31.725811533 75.0
31.730735389 69.0
31.735659245 71.0
31.740583101 66.0
31.745506957 57.0
31.750430813 72.0
31.755354670 69.0
31.760278526 56.0
31.765202382 76.0
31.770126238 68.0
31.775050094 75.0
31.779973950 75.0
31.784897806 76.0
31.789821662 59.0
31.794745518 64.0
31.799669374 48.0
31.804593230 66.0
31.809517086 72.0
31.814440942 56.0
31.819364798 61.0
31.824288654 61.0
31.829212510 70.0
31.834136366 68.0
31.839060222 79.0
31.843984078 76.0
31.848907934 74.0
31.853831790 80.0
31.858755646 74.0
31.863679502 67.0
31.868603358 73.0
31.873527214 79.0
31.878451070 70.0
31.883374926 66.0
31.888298782 63.0
31.893222638 74.0
31.898146494 48.0
31.903070350 65.0
31.907994206 70.0
31.912918062 65.0
31.917841918 51.0
31.922765774 61.0
31.927689630 78.0
31.932613486 81.0
31.937537342 81.0
31.942461198 57.0
31.947385054 75.0
31.952308910 73.0
31.957232766 75.0
31.962156622 55.0
31.967080478 60.0
31.972004334 56.0
31.976928190 64.0
31.981852046 69.0
31.986775902 77.0
31.991699758 67.0
31.996623614 67.0
32.001547470 75.0
32.006471326 60.0
32.011395182 76.0
32.016319038 76.0
32.021242894 61.0
32.026166750 73.0
32.031090606 63.0
32.036014462 48.0
32.040938318 62.0
32.045862174 76.0
32.050786030 51.0
32.055709886 67.0
32.060633742 66.0
32.065557598 66.0
32.070481454 70.0
32.075405310 61.0
32.080329166 53.0
32.085253022 65.0
32.090176878 49.0
32.095100734 62.0
32.100024590 77.0
32.104948446 65.0
32.109872302 51.0
32.114796158 65.0
32.119720014 63.0
32.124643870 65.0
32.129567726 75.0
32.134491582 73.0
32.139415438 59.0
32.144339294 67.0
32.149263150 65.0
32.154187006 65.0
32.159110862 69.0
32.164034718 73.0
32.168958574 63.0
32.173882430 59.0
32.178806286 56.0
32.183730142 73.0
32.188653998 69.0
32.193577854 64.0
32.198501710 58.0
32.203425566 62.0
32.208349422 73.0
32.213273278 65.0
32.218197134 63.0
32.223120990 62.0
32.228044846 62.0
32.232968702 71.0
32.237892558 64.0
32.242816414 70.0
32.247740270 59.0
32.252664127 62.0
32.257587983 54.0
32.262511839 86.0
32.267435695 89.0
32.272359551 66.0
32.277283407 72.0
32.282207263 64.0
32.287131119 66.0
32.292054975 55.0
32.296978831 57.0
32.301902687 53.0
32.306826543 66.0
32.311750399 57.0
32.316674255 60.0
32.321598111 68.0
32.326521967 79.0
32.331445823 67.0
32.336369679 62.0
32.341293535 57.0
32.346217391 65.0
32.351141247 59.0
32.356065103 87.0
32.360988959 72.0
32.365912815 60.0
32.370836671 77.0
32.375760527 73.0
32.380684383 89.0
32.385608239 86.0
32.390532095 95.0
32.395455951 82.0
32.400379807 87.0
32.405303663 97.0
32.410227519 76.0
32.415151375 88.0
32.420075231 97.0
32.424999087 83.0
32.429922943 99.0
32.434846799 97.0
32.439770655 122.0
32.444694511 105.0
32.449618367 115.0
32.454542223 106.0
32.459466079 103.0
32.464389935 112.0
32.469313791 104.0
32.474237647 119.0
32.479161503 113.0
32.484085359 102.0
32.489009215 110.0
32.493933071 103.0
32.498856927 91.0
32.503780783 104.0
32.508704639 88.0
32.513628495 82.0
32.518552351 92.0
32.523476207 80.0
32.528400063 75.0
32.533323919 81.0
32.538247775 75.0
32.543171631 78.0
32.548095487 68.0
32.553019343 79.0
32.557943199 84.0
32.562867055 80.0
32.567790911 64.0
32.572714767 74.0
32.577638623 80.0
32.582562479 70.0
32.587486335 68.0
32.592410191 78.0
32.597334047 65.0
32.602257903 80.0
32.607181759 52.0
32.612105615 69.0
32.617029471 67.0
32.621953327 72.0
32.626877183 73.0
32.631801039 64.0
32.636724895 70.0
32.641648751 71.0
32.646572607 63.0
32.651496463 74.0
32.656420319 53.0
32.661344175 63.0
32.666268031 80.0
32.671191887 76.0
32.676115743 76.0
32.681039599 60.0
32.685963455 86.0
32.690887311 69.0
32.695811167 59.0
32.700735023 64.0
32.705658879 75.0
32.710582735 65.0
32.715506591 83.0
32.720430447 67.0
32.725354303 61.0
32.730278159 62.0
32.735202015 67.0
32.740125871 63.0
32.745049727 58.0
32.749973583 66.0
32.754897440 66.0
32.759821296 76.0
32.764745152 65.0
32.769669008 56.0
32.774592864 65.0
32.779516720 58.0
32.784440576 64.0
32.789364432 68.0
32.794288288 69.0
32.799212144 72.0
32.804136000 51.0
32.809059856 65.0
32.813983712 69.0
32.818907568 62.0
32.823831424 73.0
32.828755280 74.0
32.833679136 57.0
32.838602992 68.0
32.843526848 77.0
32.848450704 61.0
32.853374560 57.0
32.858298416 74.0
32.863222272 58.0
32.868146128 82.0
32.873069984 70.0
32.877993840 74.0
32.882917696 65.0
32.887841552 71.0
32.892765408 78.0
32.897689264 82.0
32.902613120 66.0
32.907536976 87.0
32.912460832 58.0
32.917384688 77.0
32.922308544 71.0
32.927232400 58.0
32.932156256 82.0
32.937080112 53.0
32.942003968 80.0
32.946927824 68.0
32.951851680 78.0
32.956775536 67.0
32.961699392 58.0
32.966623248 76.0
32.971547104 77.0
32.976470960 69.0
32.981394816 69.0
32.986318672 71.0
32.991242528 75.0
32.996166384 68.0
33.001090240 65.0
33.006014096 52.0
33.010937952 78.0
33.015861808 64.0
33.020785664 60.0
33.025709520 66.0
33.030633376 68.0
33.035557232 83.0
33.040481088 67.0
33.045404944 70.0
33.050328800 81.0
33.055252656 71.0
33.060176512 57.0
33.065100368 78.0
33.070024224 67.0
33.074948080 71.0
33.079871936 66.0
33.084795792 70.0
33.089719648 64.0
33.094643504 78.0
33.099567360 64.0
33.104491216 65.0
33.109415072 59.0
33.114338928 70.0
33.119262784 53.0
33.124186640 65.0
33.129110496 66.0
33.134034352 49.0
33.138958208 72.0
33.143882064 72.0
33.148805920 56.0
33.153729776 72.0
33.158653632 75.0
33.163577488 73.0
33.168501344 61.0
33.173425200 76.0
33.178349056 66.0
33.183272912 77.0
33.188196768 70.0
33.193120624 70.0
33.198044480 68.0
33.202968336 63.0
33.207892192 62.0
33.212816048 73.0
33.217739904 71.0
33.222663760 76.0
33.227587616 69.0
33.232511472 79.0
33.237435328 57.0
33.242359184 64.0
33.247283040 58.0
33.252206897 65.0
33.257130753 75.0
33.262054609 63.0
33.266978465 67.0
33.271902321 66.0
33.276826177 71.0
33.281750033 63.0
33.286673889 77.0
33.291597745 80.0
33.296521601 63.0
33.301445457 71.0
33.306369313 61.0
33.311293169 67.0
33.316217025 71.0
33.321140881 76.0
33.326064737 62.0
33.330988593 45.0
33.335912449 57.0
33.340836305 61.0
33.345760161 82.0
33.350684017 82.0
33.355607873 70.0
33.360531729 63.0
33.365455585 72.0
33.370379441 68.0
33.375303297 66.0
33.380227153 60.0
33.385151009 78.0
33.390074865 81.0
33.394998721 65.0
33.399922577 74.0
33.404846433 71.0
33.409770289 68.0
33.414694145 63.0
33.419618001 79.0
33.424541857 62.0
33.429465713 73.0
33.434389569 82.0
33.439313425 56.0
33.444237281 69.0
33.449161137 97.0
33.454084993 79.0
33.459008849 73.0
33.463932705 62.0
33.468856561 52.0
33.473780417 64.0
33.478704273 66.0
33.483628129 88.0
33.488551985 70.0
33.493475841 66.0
33.498399697 56.0
33.503323553 70.0
33.508247409 64.0
33.513171265 64.0
33.518095121 72.0
33.523018977 69.0
33.527942833 57.0
33.532866689 79.0
33.537790545 56.0
33.542714401 69.0
33.547638257 58.0
33.552562113 73.0
33.557485969 58.0
33.562409825 63.0
33.567333681 63.0
33.572257537 72.0
33.577181393 75.0
33.582105249 82.0
33.587029105 67.0
33.591952961 55.0
33.596876817 63.0
33.601800673 57.0
33.606724529 76.0
33.611648385 62.0
33.616572241 69.0
33.621496097 50.0
33.626419953 65.0
33.631343809 73.0
33.636267665 76.0
33.641191521 69.0
33.646115377 78.0
33.651039233 67.0
33.655963089 64.0
33.660886945 48.0
33.665810801 77.0
33.670734657 71.0
33.675658513 76.0
33.680582369 76.0
33.685506225 71.0
33.690430081 68.0
33.695353937 80.0
33.700277793 82.0
33.705201649 69.0
33.710125505 72.0
33.715049361 60.0
33.719973217 64.0
33.724897073 45.0
33.729820929 63.0
33.734744785 71.0
33.739668641 80.0
33.744592497 84.0
33.749516353 73.0
33.754440210 74.0
33.759364066 67.0
33.764287922 64.0
33.769211778 69.0
33.774135634 57.0
33.779059490 70.0
33.783983346 77.0
33.788907202 64.0
33.793831058 63.0
33.798754914 79.0
33.803678770 60.0
33.808602626 79.0
33.813526482 80.0
33.818450338 72.0
33.823374194 88.0
33.828298050 65.0
33.833221906 90.0
33.838145762 71.0
33.843069618 94.0
33.847993474 74.0
33.852917330 73.0
33.857841186 85.0
33.862765042 75.0
33.867688898 86.0
33.872612754 68.0
33.877536610 82.0
33.882460466 88.0
33.887384322 76.0
33.892308178 69.0
33.897232034 85.0
33.902155890 107.0
33.907079746 98.0
33.912003602 121.0
33.916927458 103.0
33.921851314 119.0
33.926775170 150.0
33.931699026 166.0
33.936622882 288.0
33.941546738 330.0
33.946470594 410.0
33.951394450 577.0
33.956318306 724.0
33.961242162 739.0
33.966166018 865.0
33.971089874 748.0
33.976013730 667.0
33.980937586 561.0
33.985861442 493.0
33.990785298 373.0
33.995709154 308.0
34.000633010 199.0
34.005556866 170.0
34.010480722 171.0
34.015404578 143.0
34.020328434 113.0
34.025252290 117.0
34.030176146 119.0
34.035100002 103.0
34.040023858 95.0
34.044947714 112.0
34.049871570 83.0
34.054795426 100.0
34.059719282 80.0
34.064643138 90.0
34.069566994 70.0
34.074490850 87.0
34.079414706 88.0
34.084338562 81.0
34.089262418 87.0
34.094186274 86.0
34.099110130 78.0
34.104033986 78.0
34.108957842 81.0
34.113881698 64.0
34.118805554 74.0
34.123729410 72.0
34.128653266 88.0
34.133577122 79.0
34.138500978 77.0
34.143424834 72.0
34.148348690 81.0
34.153272546 72.0
34.158196402 83.0
34.163120258 70.0
34.168044114 93.0
34.172967970 61.0
34.177891826 81.0
34.182815682 62.0
34.187739538 76.0
34.192663394 65.0
34.197587250 78.0
34.202511106 88.0
34.207434962 82.0
34.212358818 90.0
34.217282674 73.0
34.222206530 76.0
34.227130386 73.0
34.232054242 85.0
34.236978098 71.0
34.241901954 72.0
34.246825810 80.0
34.251749667 73.0
34.256673523 69.0
34.261597379 65.0
34.266521235 82.0
34.271445091 64.0
34.276368947 85.0
34.281292803 89.0
34.286216659 87.0
34.291140515 71.0
34.296064371 61.0
34.300988227 71.0
34.305912083 69.0
34.310835939 85.0
34.315759795 71.0
34.320683651 78.0
34.325607507 69.0
34.330531363 76.0
34.335455219 78.0
34.340379075 65.0
34.345302931 76.0
34.350226787 72.0
34.355150643 73.0
34.360074499 91.0
34.364998355 82.0
34.369922211 83.0
34.374846067 72.0
34.379769923 86.0
34.384693779 70.0
34.389617635 78.0
34.394541491 66.0
34.399465347 84.0
34.404389203 72.0
34.409313059 64.0
34.414236915 76.0
34.419160771 81.0
34.424084627 73.0
34.429008483 81.0
34.433932339 86.0
34.438856195 81.0
34.443780051 72.0
34.448703907 82.0
34.453627763 78.0
34.458551619 83.0
34.463475475 93.0
34.468399331 87.0
34.473323187 70.0
34.478247043 98.0
34.483170899 77.0
34.488094755 83.0
34.493018611 67.0
34.497942467 86.0
34.502866323 74.0
34.507790179 82.0
34.512714035 79.0
34.517637891 76.0
34.522561747 72.0
34.527485603 79.0
34.532409459 97.0
34.537333315 65.0
34.542257171 64.0
34.547181027 73.0
34.552104883 79.0
34.557028739 84.0
34.561952595 85.0
34.566876451 77.0
34.571800307 83.0
34.576724163 73.0
34.581648019 69.0
34.586571875 82.0
34.591495731 76.0
34.596419587 66.0
34.601343443 79.0
34.606267299 91.0
34.611191155 85.0
34.616115011 81.0
34.621038867 71.0
34.625962723 85.0
34.630886579 81.0
34.635810435 68.0
34.640734291 75.0
34.645658147 89.0
34.650582003 64.0
34.655505859 90.0
34.660429715 77.0
34.665353571 80.0
34.670277427 86.0
34.675201283 91.0
34.680125139 90.0
34.685048995 83.0
34.689972851 70.0
34.694896707 83.0
34.699820563 76.0
34.704744419 94.0
34.709668275 85.0
34.714592131 70.0
34.719515987 94.0
34.724439843 93.0
34.729363699 78.0
34.734287555 85.0
34.739211411 75.0
34.744135267 92.0
34.749059123 79.0
34.753982980 72.0
34.758906836 95.0
34.763830692 80.0
34.768754548 97.0
34.773678404 87.0
34.778602260 92.0
34.783526116 98.0
34.788449972 76.0
34.793373828 95.0
34.798297684 75.0
34.803221540 74.0
34.808145396 95.0
34.813069252 81.0
34.817993108 72.0
34.822916964 65.0
34.827840820 94.0
34.832764676 80.0
34.837688532 92.0
34.842612388 86.0
34.847536244 70.0
34.852460100 82.0
34.857383956 84.0
34.862307812 78.0
34.867231668 90.0
34.872155524 79.0
34.877079380 85.0
34.882003236 75.0
34.886927092 92.0
34.891850948 77.0
34.896774804 79.0
34.901698660 84.0
34.906622516 87.0
34.911546372 95.0
34.916470228 97.0
34.921394084 93.0
34.926317940 86.0
34.931241796 73.0
34.936165652 85.0
34.941089508 101.0
34.946013364 106.0
34.950937220 84.0
34.955861076 94.0
34.960784932 84.0
34.965708788 109.0
34.970632644 86.0
34.975556500 120.0
34.980480356 100.0
34.985404212 93.0
34.990328068 97.0
34.995251924 89.0
35.000175780 76.0
35.005099636 94.0
35.010023492 115.0
35.014947348 94.0
35.019871204 98.0
35.024795060 95.0
35.029718916 99.0
35.034642772 91.0
35.039566628 73.0
35.044490484 88.0
35.049414340 98.0
35.054338196 87.0
35.059262052 94.0
35.064185908 104.0
35.069109764 88.0
35.074033620 93.0
35.078957476 91.0
35.083881332 95.0
35.088805188 97.0
35.093729044 98.0
35.098652900 91.0
35.103576756 106.0
35.108500612 103.0
35.113424468 104.0
35.118348324 103.0
35.123272180 93.0
35.128196036 97.0
35.133119892 104.0
35.138043748 94.0
35.142967604 97.0
35.147891460 97.0
35.152815316 97.0
35.157739172 101.0
35.162663028 100.0
35.167586884 88.0
35.172510740 109.0
35.177434596 125.0
35.182358452 104.0
35.187282308 110.0
35.192206164 98.0
35.197130020 99.0
35.202053876 112.0
35.206977732 107.0
35.211901588 106.0
35.216825444 121.0
35.221749300 130.0
35.226673156 98.0
35.231597012 101.0
35.236520868 93.0
35.241444724 112.0
35.246368580 105.0
35.251292437 110.0
35.256216293 127.0
35.261140149 131.0
35.266064005 117.0
35.270987861 96.0
35.275911717 133.0
35.280835573 99.0
35.285759429 121.0
35.290683285 124.0
35.295607141 109.0
35.300530997 131.0
35.305454853 109.0
35.310378709 116.0
35.315302565 118.0
35.320226421 92.0
35.325150277 132.0
35.330074133 118.0
35.334997989 107.0
35.339921845 100.0
35.344845701 124.0
35.349769557 123.0
35.354693413 123.0
35.359617269 125.0
35.364541125 113.0
35.369464981 142.0
35.374388837 135.0
35.379312693 138.0
35.384236549 123.0
35.389160405 124.0
35.394084261 128.0
35.399008117 99.0
35.403931973 135.0
35.408855829 117.0
35.413779685 118.0
35.418703541 125.0
35.423627397 136.0
35.428551253 124.0
35.433475109 125.0
35.438398965 139.0
35.443322821 152.0
35.448246677 133.0
35.453170533 129.0
35.458094389 145.0
35.463018245 147.0
35.467942101 146.0
35.472865957 153.0
35.477789813 139.0
35.482713669 154.0
35.487637525 146.0
35.492561381 155.0
35.497485237 161.0
35.502409093 155.0
35.507332949 154.0
35.512256805 139.0
35.517180661 175.0
35.522104517 156.0
35.527028373 154.0
35.531952229 164.0
35.536876085 165.0
35.541799941 196.0
35.546723797 183.0
35.551647653 160.0
35.556571509 157.0
35.561495365 180.0
35.566419221 188.0
35.571343077 137.0
35.576266933 217.0
35.581190789 199.0
35.586114645 179.0
35.591038501 177.0
35.595962357 185.0
35.600886213 191.0
35.605810069 210.0
35.610733925 185.0
35.615657781 187.0
35.620581637 177.0
35.625505493 194.0
35.630429349 173.0
35.635353205 211.0
35.640277061 201.0
35.645200917 214.0
35.650124773 209.0
35.655048629 217.0
35.659972485 226.0
35.664896341 215.0
35.669820197 229.0
35.674744053 222.0
35.679667909 231.0
35.684591765 262.0
35.689515621 212.0
35.694439477 231.0
35.699363333 242.0
35.704287189 246.0
35.709211045 258.0
35.714134901 277.0
35.719058757 300.0
35.723982613 275.0
35.728906469 285.0
35.733830325 311.0
35.738754181 283.0
35.743678037 304.0
35.748601893 342.0
35.753525750 354.0
35.758449606 302.0
35.763373462 383.0
35.768297318 403.0
35.773221174 341.0
35.778145030 383.0
35.783068886 396.0
35.787992742 421.0
35.792916598 437.0
35.797840454 493.0
35.802764310 446.0
35.807688166 485.0
35.812612022 481.0
35.817535878 520.0
35.822459734 574.0
35.827383590 532.0
35.832307446 601.0
35.837231302 668.0
35.842155158 715.0
35.847079014 760.0
35.852002870 756.0
35.856926726 796.0
35.861850582 889.0
35.866774438 938.0
35.871698294 930.0
35.876622150 1038.0
35.881546006 1025.0
35.886469862 1140.0
35.891393718 1277.0
35.896317574 1282.0
35.901241430 1436.0
35.906165286 1581.0
35.911089142 1673.0
35.916012998 1747.0
35.920936854 2004.0
35.925860710 2105.0
35.930784566 2384.0
35.935708422 2509.0
35.940632278 2720.0
35.945556134 3029.0
35.950479990 3407.0
35.955403846 3754.0
35.960327702 4173.0
35.965251558 4870.0
35.970175414 5396.0
35.975099270 5962.0
35.980023126 6857.0
35.984946982 7879.0
35.989870838 8706.0
35.994794694 9616.0
35.999718550 10567.0
36.004642406 11554.0
36.009566262 12629.0
36.014490118 13129.0
36.019413974 13935.0
36.024337830 14219.0
36.029261686 14555.0
36.034185542 14830.0
36.039109398 14680.0
36.044033254 14575.0
36.048957110 14497.0
36.053880966 13805.0
36.058804822 13255.0
36.063728678 12794.0
36.068652534 12312.0
36.073576390 11963.0
36.078500246 11539.0
36.083424102 11069.0
36.088347958 10937.0
36.093271814 10692.0
36.098195670 10713.0
36.103119526 10516.0
36.108043382 10557.0
36.112967238 10440.0
36.117891094 10069.0
36.122814950 9892.0
36.127738806 9607.0
36.132662662 9348.0
36.137586518 8950.0
36.142510374 8294.0
36.147434230 7932.0
36.152358086 7242.0
36.157281942 6716.0
36.162205798 6145.0
36.167129654 5575.0
36.172053510 5115.0
36.176977366 4664.0
36.181901222 4203.0
36.186825078 3855.0
36.191748934 3584.0
36.196672790 3180.0
36.201596646 3018.0
36.206520502 2737.0
36.211444358 2434.0
36.216368214 2343.0
36.221292070 2035.0
36.226215926 2083.0
36.231139782 1805.0
36.236063638 1629.0
36.240987494 1498.0
36.245911350 1420.0
36.250835207 1226.0
36.255759063 1210.0
36.260682919 1148.0
36.265606775 1052.0
36.270530631 1023.0
36.275454487 971.0
36.280378343 890.0
36.285302199 853.0
36.290226055 806.0
36.295149911 783.0
36.300073767 709.0
36.304997623 700.0
36.309921479 678.0
36.314845335 680.0
36.319769191 643.0
36.324693047 571.0
36.329616903 595.0
36.334540759 524.0
36.339464615 513.0
36.344388471 489.0
36.349312327 543.0
36.354236183 536.0
36.359160039 457.0
36.364083895 459.0
36.369007751 423.0
36.373931607 425.0
36.378855463 418.0
36.383779319 392.0
36.388703175 408.0
36.393627031 384.0
36.398550887 403.0
36.403474743 380.0
36.408398599 331.0
36.413322455 343.0
36.418246311 383.0
36.423170167 344.0
36.428094023 331.0
36.433017879 319.0
36.437941735 347.0
36.442865591 311.0
36.447789447 285.0
36.452713303 310.0
36.457637159 295.0
36.462561015 292.0
36.467484871 278.0
36.472408727 260.0
36.477332583 228.0
36.482256439 276.0
36.487180295 263.0
36.492104151 269.0
36.497028007 284.0
36.501951863 263.0
36.506875719 266.0
36.511799575 261.0
36.516723431 212.0
36.521647287 230.0
36.526571143 200.0
36.531494999 286.0
36.536418855 222.0
36.541342711 208.0
36.546266567 198.0
36.551190423 200.0
36.556114279 221.0
36.561038135 198.0
36.565961991 203.0
36.570885847 184.0
36.575809703 225.0
36.580733559 213.0
36.585657415 200.0
36.590581271 182.0
36.595505127 202.0
36.600428983 186.0
36.605352839 204.0
36.610276695 168.0
36.615200551 203.0
36.620124407 190.0
36.625048263 192.0
36.629972119 187.0
36.634895975 200.0
36.639819831 183.0
36.644743687 175.0
36.649667543 182.0
36.654591399 193.0
36.659515255 181.0
36.664439111 191.0
36.669362967 193.0
36.674286823 182.0
36.679210679 209.0
36.684134535 157.0
36.689058391 182.0
36.693982247 161.0
36.698906103 179.0
36.703829959 173.0
36.708753815 178.0
36.713677671 184.0
36.718601527 175.0
36.723525383 199.0
36.728449239 171.0
36.733373095 187.0
36.738296951 182.0
36.743220807 191.0
36.748144663 179.0
36.753068520 207.0
36.757992376 173.0
36.762916232 206.0
36.767840088 170.0
36.772763944 206.0
36.777687800 191.0
36.782611656 185.0
36.787535512 184.0
36.792459368 182.0
36.797383224 187.0
36.802307080 190.0
36.807230936 207.0
36.812154792 190.0
36.817078648 172.0
36.822002504 194.0
36.826926360 190.0
36.831850216 191.0
36.836774072 183.0
36.841697928 192.0
36.846621784 196.0
36.851545640 181.0
36.856469496 203.0
36.861393352 181.0
36.866317208 214.0
36.871241064 198.0
36.876164920 205.0
36.881088776 208.0
36.886012632 188.0
36.890936488 265.0
36.895860344 204.0
36.900784200 186.0
36.905708056 266.0
36.910631912 203.0
36.915555768 211.0
36.920479624 256.0
36.925403480 262.0
36.930327336 212.0
36.935251192 213.0
36.940175048 281.0
36.945098904 269.0
36.950022760 207.0
36.954946616 173.0
36.959870472 266.0
36.964794328 264.0
36.969718184 265.0
36.974642040 198.0
36.979565896 194.0
36.984489752 266.0
36.989413608 219.0
36.994337464 215.0
36.999261320 280.0
37.004185176 259.0
37.009109032 216.0
37.014032888 265.0
37.018956744 200.0
37.023880600 256.0
37.028804456 256.0
37.033728312 275.0
37.038652168 269.0
37.043576024 255.0
37.048499880 258.0
37.053423736 265.0
37.058347592 264.0
37.063271448 289.0
37.068195304 334.0
37.073119160 258.0
37.078043016 308.0
37.082966872 277.0
37.087890728 292.0
37.092814584 278.0
37.097738440 297.0
37.102662296 301.0
37.107586152 312.0
37.112510008 333.0
37.117433864 298.0
37.122357720 311.0
37.127281576 307.0
37.132205432 335.0
37.137129288 284.0
37.142053144 319.0
37.146977000 308.0
37.151900856 307.0
37.156824712 323.0
37.161748568 316.0
37.166672424 358.0
37.171596280 311.0
37.176520136 307.0
37.181443992 326.0
37.186367848 352.0
37.191291704 345.0
37.196215560 345.0
37.201139416 328.0
37.206063272 324.0
37.210987128 371.0
37.215910984 366.0
37.220834840 339.0
37.225758696 338.0
37.230682552 363.0
37.235606408 406.0
37.240530264 349.0
37.245454120 356.0
37.250377977 352.0
37.255301833 384.0
37.260225689 384.0
37.265149545 383.0
37.270073401 383.0
37.274997257 380.0
37.279921113 397.0
37.284844969 385.0
37.289768825 427.0
37.294692681 395.0
37.299616537 436.0
37.304540393 409.0
37.309464249 454.0
37.314388105 422.0
37.319311961 442.0
37.324235817 425.0
37.329159673 498.0
37.334083529 464.0
37.339007385 460.0
37.343931241 484.0
37.348855097 511.0
37.353778953 486.0
37.358702809 459.0
37.363626665 486.0
37.368550521 491.0
37.373474377 531.0
37.378398233 529.0
37.383322089 551.0
37.388245945 510.0
37.393169801 568.0
37.398093657 557.0
37.403017513 569.0
37.407941369 608.0
37.412865225 602.0
37.417789081 638.0
37.422712937 663.0
37.427636793 573.0
37.432560649 615.0
37.437484505 644.0
37.442408361 705.0
37.447332217 679.0
37.452256073 733.0
37.457179929 705.0
37.462103785 687.0
37.467027641 812.0
37.471951497 790.0
37.476875353 827.0
37.481799209 821.0
37.486723065 809.0
37.491646921 941.0
37.496570777 963.0
37.501494633 1004.0
37.506418489 1064.0
37.511342345 1197.0
37.516266201 1365.0
37.521190057 1440.0
37.526113913 1564.0
37.531037769 1719.0
37.535961625 1982.0
37.540885481 2157.0
37.545809337 2318.0
37.550733193 2355.0
37.555657049 2450.0
37.560580905 2446.0
37.565504761 2591.0
37.570428617 2546.0
37.575352473 2486.0
37.580276329 2517.0
37.585200185 2405.0
37.590124041 2360.0
37.595047897 2372.0
37.599971753 2352.0
37.604895609 2366.0
37.609819465 2530.0
37.614743321 2671.0
37.619667177 2628.0
37.624591033 2963.0
37.629514889 2999.0
37.634438745 3440.0
37.639362601 3660.0
37.644286457 4267.0
37.649210313 4733.0
37.654134169 5532.0
37.659058025 6319.0
37.663981881 7370.0
37.668905737 8736.0
37.673829593 10924.0
37.678753449 13318.0
37.683677305 17763.0
37.688601161 23952.0
37.693525017 35869.0
37.698448873 56950.0
37.703372729 100396.0
37.708296585 159520.0
37.713220441 215330.0
37.718144297 244741.0
37.723068153 253640.0
37.727992009 244032.0
37.732915865 213114.0
37.737839721 158655.0
37.742763577 103546.0
37.747687433 65086.0
37.752611290 42505.0
37.757535146 28869.0
37.762459002 21685.0
37.767382858 17495.0
37.772306714 15232.0
37.777230570 14809.0
37.782154426 15389.0
37.787078282 18883.0
37.792002138 25099.0
37.796925994 38314.0
37.801849850 58963.0
37.806773706 86599.0
37.811697562 107501.0
37.816621418 121601.0
37.821545274 123322.0
37.826469130 116570.0
37.831392986 98287.0
37.836316842 73359.0
37.841240698 49816.0
37.846164554 31714.0
37.851088410 21290.0
37.856012266 14471.0
37.860936122 10899.0
37.865859978 8250.0
37.870783834 6652.0
37.875707690 5561.0
37.880631546 4739.0
37.885555402 4267.0
37.890479258 3834.0
37.895403114 3294.0
37.900326970 3058.0
37.905250826 2844.0
37.910174682 2443.0
37.915098538 2388.0
37.920022394 2166.0
37.924946250 2038.0
37.929870106 1863.0
37.934793962 1870.0
37.939717818 1678.0
37.944641674 1608.0
37.949565530 1534.0
37.954489386 1544.0
37.959413242 1424.0
37.964337098 1296.0
37.969260954 1270.0
37.974184810 1186.0
37.979108666 1132.0
37.984032522 1093.0
37.988956378 1095.0
37.993880234 1043.0
37.998804090 972.0
38.003727946 986.0
38.008651802 943.0
38.013575658 932.0
38.018499514 882.0
38.023423370 849.0
38.028347226 855.0
38.033271082 763.0
38.038194938 772.0
38.043118794 717.0
38.048042650 735.0
38.052966506 729.0
38.057890362 727.0
38.062814218 657.0
38.067738074 662.0
38.072661930 658.0
38.077585786 586.0
38.082509642 661.0
38.087433498 622.0
38.092357354 579.0
38.097281210 589.0
38.102205066 609.0
38.107128922 585.0
38.112052778 574.0
38.116976634 527.0
38.121900490 560.0
38.126824346 542.0
38.131748202 494.0
38.136672058 517.0
38.141595914 501.0
38.146519770 488.0
38.151443626 485.0
38.156367482 488.0
38.161291338 422.0
38.166215194 459.0
38.171139050 422.0
38.176062906 425.0
38.180986762 418.0
38.185910618 373.0
38.190834474 409.0
38.195758330 391.0
38.200682186 425.0
38.205606042 379.0
38.210529898 392.0
38.215453754 373.0
38.220377610 366.0
38.225301466 364.0
38.230225322 351.0
38.235149178 331.0
38.240073034 328.0
38.244996890 384.0
38.249920747 344.0
38.254844603 346.0
38.259768459 312.0
38.264692315 340.0
38.269616171 314.0
38.274540027 284.0
38.279463883 317.0
38.284387739 321.0
38.289311595 256.0
38.294235451 288.0
38.299159307 283.0
38.304083163 282.0
38.309007019 207.0
38.313930875 294.0
38.318854731 264.0
38.323778587 261.0
38.328702443 201.0
38.333626299 214.0
38.338550155 255.0
38.343474011 197.0
38.348397867 195.0
38.353321723 212.0
38.358245579 209.0
38.363169435 202.0
38.368093291 197.0
38.373017147 207.0
38.377941003 211.0
38.382864859 183.0
38.387788715 195.0
38.392712571 195.0
38.397636427 177.0
38.402560283 171.0
38.407484139 168.0
38.412407995 177.0
38.417331851 170.0
38.422255707 195.0
38.427179563 166.0
38.432103419 173.0
38.437027275 162.0
38.441951131 156.0
38.446874987 179.0
38.451798843 152.0
38.456722699 157.0
38.461646555 159.0
38.466570411 143.0
38.471494267 153.0
38.476418123 152.0
38.481341979 149.0
38.486265835 161.0
38.491189691 145.0
38.496113547 153.0
38.501037403 145.0
38.505961259 149.0
38.510885115 167.0
38.515808971 160.0
38.520732827 136.0
38.525656683 148.0
38.530580539 157.0
38.535504395 145.0
38.540428251 129.0
38.545352107 146.0
38.550275963 136.0
38.555199819 138.0
38.560123675 147.0
38.565047531 127.0
38.569971387 158.0
38.574895243 136.0
38.579819099 124.0
38.584742955 141.0
38.589666811 115.0
38.594590667 121.0
38.599514523 129.0
38.604438379 126.0
38.609362235 110.0
38.614286091 122.0
38.619209947 115.0
38.624133803 120.0
38.629057659 110.0
38.633981515 141.0
38.638905371 95.0
38.643829227 110.0
38.648753083 133.0
38.653676939 116.0
38.658600795 123.0
38.663524651 139.0
38.668448507 117.0
38.673372363 117.0
38.678296219 114.0
38.683220075 124.0
38.688143931 114.0
38.693067787 124.0
38.697991643 115.0
38.702915499 113.0
38.707839355 124.0
38.712763211 112.0
38.717687067 85.0
38.722610923 95.0
38.727534779 88.0
38.732458635 119.0
38.737382491 100.0
38.742306347 101.0
38.747230203 114.0
38.752154060 110.0
38.757077916 83.0
38.762001772 94.0
38.766925628 111.0
38.771849484 101.0
38.776773340 108.0
38.781697196 111.0
38.786621052 100.0
38.791544908 118.0
38.796468764 124.0
38.801392620 95.0
38.806316476 105.0
38.811240332 108.0
38.816164188 119.0
38.821088044 116.0
38.826011900 96.0
38.830935756 108.0
38.835859612 84.0
38.840783468 96.0
38.845707324 94.0
38.850631180 88.0
38.855555036 108.0
38.860478892 100.0
38.865402748 101.0
38.870326604 90.0
38.875250460 85.0
38.880174316 93.0
38.885098172 107.0
38.890022028 78.0
38.894945884 100.0
38.899869740 106.0
38.904793596 94.0
38.909717452 97.0
38.914641308 88.0
38.919565164 87.0
38.924489020 101.0
38.929412876 105.0
38.934336732 83.0
38.939260588 100.0
38.944184444 105.0
38.949108300 74.0
38.954032156 82.0
38.958956012 90.0
38.963879868 82.0
38.968803724 108.0
38.973727580 102.0
38.978651436 84.0
38.983575292 105.0
38.988499148 92.0
38.993423004 93.0
38.998346860 91.0
39.003270716 87.0
39.008194572 96.0
39.013118428 103.0
39.018042284 90.0
39.022966140 106.0
39.027889996 82.0
39.032813852 101.0
39.037737708 83.0
39.042661564 92.0
39.047585420 78.0
39.052509276 88.0
39.057433132 80.0
39.062356988 89.0
39.067280844 83.0
39.072204700 83.0
39.077128556 98.0
39.082052412 71.0
39.086976268 78.0
39.091900124 108.0
39.096823980 81.0
39.101747836 90.0
39.106671692 78.0
39.111595548 101.0
39.116519404 79.0
39.121443260 82.0
39.126367116 83.0
39.131290972 74.0
39.136214828 79.0
39.141138684 97.0
39.146062540 95.0
39.150986396 84.0
39.155910252 88.0
39.160834108 71.0
39.165757964 72.0
39.170681820 82.0
39.175605676 89.0
39.180529532 86.0
39.185453388 65.0
39.190377244 91.0
39.195301100 73.0
39.200224956 80.0
39.205148812 95.0
39.210072668 89.0
39.214996524 87.0
39.219920380 70.0
39.224844236 82.0
39.229768092 75.0
39.234691948 69.0
39.239615804 82.0
39.244539660 93.0
39.249463517 74.0
39.254387373 80.0
39.259311229 91.0
39.264235085 80.0
39.269158941 78.0
39.274082797 89.0
39.279006653 92.0
39.283930509 80.0
39.288854365 80.0
39.293778221 81.0
39.298702077 79.0
39.303625933 82.0
39.308549789 79.0
39.313473645 83.0
39.318397501 76.0
39.323321357 87.0
39.328245213 87.0
39.333169069 79.0
39.338092925 90.0
39.343016781 80.0
39.347940637 85.0
39.352864493 79.0
39.357788349 71.0
39.362712205 73.0
39.367636061 80.0
39.372559917 66.0
39.377483773 81.0
39.382407629 90.0
39.387331485 74.0
39.392255341 61.0
39.397179197 77.0
39.402103053 65.0
39.407026909 89.0
39.411950765 96.0
39.416874621 81.0
39.421798477 85.0
39.426722333 69.0
39.431646189 66.0
39.436570045 72.0
39.441493901 60.0
39.446417757 66.0
39.451341613 94.0
39.456265469 58.0
39.461189325 70.0
39.466113181 67.0
39.471037037 82.0
39.475960893 73.0
39.480884749 82.0
39.485808605 78.0
39.490732461 82.0
39.495656317 78.0
39.500580173 93.0
39.505504029 69.0
39.510427885 67.0
39.515351741 95.0
39.520275597 81.0
39.525199453 80.0
39.530123309 88.0
39.535047165 77.0
39.539971021 84.0
39.544894877 80.0
39.549818733 78.0
39.554742589 69.0
39.559666445 82.0
39.564590301 77.0
39.569514157 86.0
39.574438013 68.0
39.579361869 75.0
39.584285725 78.0
39.589209581 67.0
39.594133437 75.0
39.599057293 63.0
39.603981149 74.0
39.608905005 80.0
39.613828861 64.0
39.618752717 77.0
39.623676573 75.0
39.628600429 80.0
39.633524285 76.0
39.638448141 77.0
39.643371997 82.0
39.648295853 77.0
39.653219709 86.0
39.658143565 83.0
39.663067421 68.0
39.667991277 72.0
39.672915133 70.0
39.677838989 65.0
39.682762845 81.0
39.687686701 81.0
39.692610557 64.0
39.697534413 82.0
39.702458269 73.0
39.707382125 79.0
39.712305981 67.0
39.717229837 68.0
39.722153693 66.0
39.727077549 70.0
39.732001405 80.0
39.736925261 62.0
39.741849117 73.0
39.746772973 80.0
39.751696830 76.0
39.756620686 64.0
39.761544542 70.0
39.766468398 60.0
39.771392254 67.0
39.776316110 89.0
39.781239966 71.0
39.786163822 65.0
39.791087678 69.0
39.796011534 79.0
39.800935390 70.0
39.805859246 56.0
39.810783102 76.0
39.815706958 89.0
39.820630814 87.0
39.825554670 66.0
39.830478526 81.0
39.835402382 67.0
39.840326238 63.0
39.845250094 83.0
39.850173950 82.0
39.855097806 73.0
39.860021662 72.0
39.864945518 71.0
39.869869374 81.0
39.874793230 62.0
39.879717086 68.0
39.884640942 85.0
39.889564798 70.0
39.894488654 69.0
39.899412510 76.0
39.904336366 70.0
39.909260222 88.0
39.914184078 66.0
39.919107934 71.0
39.924031790 65.0
39.928955646 66.0
39.933879502 81.0
39.938803358 75.0
39.943727214 85.0
39.948651070 75.0
39.953574926 85.0
39.958498782 70.0
39.963422638 72.0
39.968346494 62.0
39.973270350 72.0
39.978194206 69.0
39.983118062 77.0
39.988041918 68.0
39.992965774 65.0
39.997889630 71.0
