45.002461930 69.0
45.007385786 63.0
45.012309642 68.0
45.017233498 57.0
45.022157354 72.0
45.027081210 78.0
45.032005066 68.0
45.036928922 67.0
45.041852778 71.0
45.046776634 58.0
45.051700490 53.0
45.056624346 45.0
45.061548202 61.0
45.066472058 63.0
45.071395914 51.0
45.076319770 57.0
45.081243626 65.0
45.086167482 68.0
45.091091338 63.0
45.096015194 49.0
45.100939050 54.0
45.105862906 69.0
45.110786762 55.0
45.115710618 69.0
45.120634474 56.0
45.125558330 76.0
45.130482186 78.0
45.135406042 56.0
45.140329898 70.0
45.145253754 50.0
45.150177610 72.0
45.155101466 69.0
45.160025322 49.0
45.164949178 59.0
45.169873034 65.0
45.174796890 54.0
45.179720746 65.0
45.184644602 70.0
45.189568458 60.0
45.194492314 70.0
45.199416170 70.0
45.204340026 73.0
45.209263882 56.0
45.214187738 55.0
45.219111594 61.0
45.224035450 53.0
45.228959306 77.0
45.233883162 67.0
45.238807018 72.0
45.243730874 56.0
45.248654730 73.0
45.253578587 66.0
45.258502443 56.0
45.263426299 64.0
45.268350155 60.0
45.273274011 60.0
45.278197867 63.0
45.283121723 68.0
45.288045579 58.0
45.292969435 68.0
45.297893291 63.0
45.302817147 54.0
45.307741003 47.0
45.312664859 57.0
45.317588715 62.0
45.322512571 65.0
45.327436427 82.0
45.332360283 60.0
45.337284139 56.0
45.342207995 65.0
45.347131851 66.0
45.352055707 57.0
45.356979563 75.0
45.361903419 64.0
45.366827275 65.0
45.371751131 70.0
45.376674987 51.0
45.381598843 56.0
45.386522699 63.0
45.391446555 72.0
45.396370411 60.0
45.401294267 62.0
45.406218123 59.0
45.411141979 66.0
45.416065835 62.0
45.420989691 61.0
45.425913547 55.0
45.430837403 55.0
45.435761259 64.0
45.440685115 50.0
45.445608971 63.0
45.450532827 70.0
45.455456683 70.0
45.460380539 59.0
45.465304395 74.0
45.470228251 53.0
45.475152107 57.0
45.480075963 63.0
45.484999819 59.0
45.489923675 56.0
45.494847531 55.0
45.499771387 63.0
45.504695243 56.0
45.509619099 57.0
45.514542955 58.0
45.519466811 63.0
45.524390667 63.0
45.529314523 60.0
45.534238379 57.0
45.539162235 61.0
45.544086091 61.0
45.549009947 67.0
45.553933803 45.0
45.558857659 61.0
45.563781515 62.0
45.568705371 63.0
45.573629227 68.0
45.578553083 66.0
45.583476939 60.0
45.588400795 67.0
45.593324651 67.0
45.598248507 54.0
45.603172363 53.0
45.608096219 60.0
45.613020075 55.0
45.617943931 54.0
45.622867787 61.0
45.627791643 66.0
45.632715499 56.0
45.637639355 50.0
45.642563211 65.0
45.647487067 76.0
45.652410923 66.0
45.657334779 61.0
45.662258635 73.0
45.667182491 60.0
45.672106347 54.0
45.677030203 67.0
45.681954059 54.0
45.686877915 71.0
45.691801771 73.0
45.696725627 60.0
45.701649483 67.0
45.706573339 71.0
45.711497195 58.0
45.716421051 87.0
45.721344907 56.0
45.726268763 48.0
45.731192619 51.0
45.736116475 74.0
45.741040331 62.0
45.745964187 70.0
45.750888043 50.0
45.755811900 64.0
45.760735756 66.0
45.765659612 64.0
45.770583468 63.0
45.775507324 65.0
45.780431180 54.0
45.785355036 60.0
45.790278892 51.0
45.795202748 77.0
45.800126604 63.0
45.805050460 64.0
45.809974316 61.0
45.814898172 78.0
45.819822028 55.0
45.824745884 55.0
45.829669740 70.0
45.834593596 73.0
45.839517452 64.0
45.844441308 73.0
45.849365164 65.0
45.854289020 49.0
45.859212876 62.0
45.864136732 76.0
45.869060588 65.0
45.873984444 60.0
45.878908300 68.0
45.883832156 73.0
45.888756012 72.0
45.893679868 72.0
45.898603724 63.0
45.903527580 58.0
45.908451436 58.0
45.913375292 69.0
45.918299148 50.0
45.923223004 74.0
45.928146860 55.0
45.933070716 48.0
45.937994572 59.0
45.942918428 67.0
45.947842284 72.0
45.952766140 85.0
45.957689996 56.0
45.962613852 72.0
45.967537708 54.0
45.972461564 60.0
45.977385420 52.0
45.982309276 64.0
45.987233132 61.0
45.992156988 71.0
45.997080844 62.0
46.002004700 64.0
46.006928556 61.0
46.011852412 66.0
46.016776268 65.0
46.021700124 65.0
46.026623980 49.0
46.031547836 58.0
46.036471692 56.0
46.041395548 55.0
46.046319404 44.0
46.051243260 70.0
46.056167116 59.0
46.061090972 57.0
46.066014828 61.0
46.070938684 60.0
46.075862540 56.0
46.080786396 61.0
46.085710252 63.0
46.090634108 65.0
46.095557964 63.0
46.100481820 54.0
46.105405676 56.0
46.110329532 65.0
46.115253388 44.0
46.120177244 63.0
46.125101100 60.0
46.130024956 59.0
46.134948812 66.0
46.139872668 57.0
46.144796524 59.0
46.149720380 64.0
46.154644236 66.0
46.159568092 60.0
46.164491948 72.0
46.169415804 57.0
46.174339660 55.0
46.179263516 66.0
46.184187372 71.0
46.189111228 63.0
46.194035084 58.0
46.198958940 46.0
46.203882796 51.0
46.208806652 67.0
46.213730508 59.0
46.218654364 65.0
46.223578220 65.0
46.228502076 57.0
46.233425932 49.0
46.238349788 58.0
46.243273644 49.0
46.248197500 57.0
46.253121357 62.0
46.258045213 57.0
46.262969069 68.0
46.267892925 62.0
46.272816781 47.0
46.277740637 66.0
46.282664493 65.0
46.287588349 40.0
46.292512205 55.0
46.297436061 66.0
46.302359917 59.0
46.307283773 74.0
46.312207629 68.0
46.317131485 65.0
46.322055341 54.0
46.326979197 55.0
46.331903053 49.0
46.336826909 58.0
46.341750765 56.0
46.346674621 61.0
46.351598477 49.0
46.356522333 55.0
46.361446189 53.0
46.366370045 62.0
46.371293901 70.0
46.376217757 61.0
46.381141613 60.0
46.386065469 75.0
46.390989325 61.0
46.395913181 75.0
46.400837037 57.0
46.405760893 60.0
46.410684749 65.0
46.415608605 44.0
46.420532461 59.0
46.425456317 58.0
46.430380173 47.0
46.435304029 64.0
46.440227885 59.0
46.445151741 64.0
46.450075597 58.0
46.454999453 52.0
46.459923309 52.0
46.464847165 65.0
46.469771021 58.0
46.474694877 72.0
46.479618733 67.0
46.484542589 52.0
46.489466445 69.0
46.494390301 54.0
46.499314157 63.0
46.504238013 62.0
46.509161869 67.0
46.514085725 68.0
46.519009581 53.0
46.523933437 61.0
46.528857293 67.0
46.533781149 60.0
46.538705005 61.0
46.543628861 54.0
46.548552717 51.0
46.553476573 59.0
46.558400429 71.0
46.563324285 62.0
46.568248141 68.0
46.573171997 64.0
46.578095853 60.0
46.583019709 69.0
46.587943565 52.0
46.592867421 61.0
46.597791277 77.0
46.602715133 61.0
46.607638989 66.0
46.612562845 72.0
46.617486701 63.0
46.622410557 54.0
46.627334413 70.0
46.632258269 57.0
46.637182125 58.0
46.642105981 58.0
46.647029837 53.0
46.651953693 71.0
46.656877549 70.0
46.661801405 44.0
46.666725261 69.0
46.671649117 75.0
46.676572973 65.0
46.681496829 57.0
46.686420685 65.0
46.691344541 81.0
46.696268397 76.0
46.701192253 74.0
46.706116109 70.0
46.711039965 82.0
46.715963821 61.0
46.720887677 66.0
46.725811533 87.0
46.730735389 66.0
46.735659245 66.0
46.740583101 70.0
46.745506957 58.0
46.750430813 59.0
46.755354670 76.0
46.760278526 63.0
46.765202382 65.0
46.770126238 55.0
46.775050094 64.0
46.779973950 75.0
46.784897806 51.0
46.789821662 68.0
46.794745518 64.0
46.799669374 61.0
46.804593230 71.0
46.809517086 89.0
46.814440942 53.0
46.819364798 89.0
46.824288654 58.0
46.829212510 62.0
46.834136366 48.0
46.839060222 71.0
46.843984078 57.0
46.848907934 78.0
46.853831790 77.0
46.858755646 59.0
46.863679502 79.0
46.868603358 61.0
46.873527214 56.0
46.878451070 55.0
46.883374926 67.0
46.888298782 71.0
46.893222638 75.0
46.898146494 86.0
46.903070350 57.0
46.907994206 77.0
46.912918062 76.0
46.917841918 67.0
46.922765774 58.0
46.927689630 73.0
46.932613486 75.0
46.937537342 60.0
46.942461198 61.0
46.947385054 74.0
46.952308910 68.0
46.957232766 90.0
46.962156622 91.0
46.967080478 53.0
46.972004334 71.0
46.976928190 88.0
46.981852046 78.0
46.986775902 85.0
46.991699758 89.0
46.996623614 94.0
47.001547470 83.0
47.006471326 93.0
47.011395182 82.0
47.016319038 80.0
47.021242894 99.0
47.026166750 103.0
47.031090606 113.0
47.036014462 119.0
47.040938318 129.0
47.045862174 154.0
47.050786030 183.0
47.055709886 198.0
47.060633742 277.0
47.065557598 337.0
47.070481454 389.0
47.075405310 476.0
47.080329166 595.0
47.085253022 751.0
47.090176878 844.0
47.095100734 854.0
47.100024590 905.0
47.104948446 935.0
47.109872302 858.0
47.114796158 791.0
47.119720014 622.0
47.124643870 559.0
47.129567726 501.0
47.134491582 414.0
47.139415438 319.0
47.144339294 312.0
47.149263150 276.0
47.154187006 203.0
47.159110862 228.0
47.164034718 203.0
47.168958574 214.0
47.173882430 202.0
47.178806286 209.0
47.183730142 183.0
47.188653998 149.0
47.193577854 145.0
47.198501710 148.0
47.203425566 159.0
47.208349422 116.0
47.213273278 117.0
47.218197134 105.0
47.223120990 122.0
47.228044846 93.0
47.232968702 86.0
47.237892558 104.0
47.242816414 83.0
47.247740270 95.0
47.252664127 88.0
47.257587983 79.0
47.262511839 81.0
47.267435695 84.0
47.272359551 104.0
47.277283407 73.0
47.282207263 81.0
47.287131119 80.0
47.292054975 78.0
47.296978831 70.0
47.301902687 73.0
47.306826543 79.0
47.311750399 73.0
47.316674255 76.0
47.321598111 70.0
47.326521967 69.0
47.331445823 86.0
47.336369679 85.0
47.341293535 75.0
47.346217391 67.0
47.351141247 77.0
47.356065103 67.0
47.360988959 82.0
47.365912815 77.0
47.370836671 83.0
47.375760527 72.0
47.380684383 92.0
47.385608239 73.0
47.390532095 79.0
47.395455951 78.0
47.400379807 77.0
47.405303663 55.0
47.410227519 68.0
47.415151375 65.0
47.420075231 81.0
47.424999087 78.0
47.429922943 81.0
47.434846799 73.0
47.439770655 69.0
47.444694511 70.0
47.449618367 62.0
47.454542223 78.0
47.459466079 81.0
47.464389935 70.0
47.469313791 65.0
47.474237647 74.0
47.479161503 84.0
47.484085359 90.0
47.489009215 81.0
47.493933071 72.0
47.498856927 67.0
47.503780783 71.0
47.508704639 80.0
47.513628495 57.0
47.518552351 85.0
47.523476207 52.0
47.528400063 69.0
47.533323919 76.0
47.538247775 69.0
47.543171631 89.0
47.548095487 76.0
47.553019343 69.0
47.557943199 78.0
47.562867055 80.0
47.567790911 74.0
47.572714767 78.0
47.577638623 49.0
47.582562479 92.0
47.587486335 57.0
47.592410191 81.0
47.597334047 64.0
47.602257903 69.0
47.607181759 72.0
47.612105615 75.0
47.617029471 68.0
47.621953327 77.0
47.626877183 74.0
47.631801039 74.0
47.636724895 71.0
47.641648751 75.0
47.646572607 51.0
47.651496463 68.0
47.656420319 64.0
47.661344175 63.0
47.666268031 65.0
47.671191887 66.0
47.676115743 55.0
47.681039599 82.0
47.685963455 71.0
47.690887311 74.0
47.695811167 68.0
47.700735023 59.0
47.705658879 63.0
47.710582735 71.0
47.715506591 78.0
47.720430447 78.0
47.725354303 91.0
47.730278159 80.0
47.735202015 76.0
47.740125871 78.0
47.745049727 68.0
47.749973583 70.0
47.754897440 64.0
47.759821296 75.0
47.764745152 60.0
47.769669008 76.0
47.774592864 75.0
47.779516720 73.0
47.784440576 83.0
47.789364432 65.0
47.794288288 85.0
47.799212144 71.0
47.804136000 78.0
47.809059856 75.0
47.813983712 88.0
47.818907568 69.0
47.823831424 59.0
47.828755280 77.0
47.833679136 79.0
47.838602992 99.0
47.843526848 74.0
47.848450704 78.0
47.853374560 88.0
47.858298416 78.0
47.863222272 74.0
47.868146128 61.0
47.873069984 72.0
47.877993840 78.0
47.882917696 73.0
47.887841552 68.0
47.892765408 71.0
47.897689264 67.0
47.902613120 79.0
47.907536976 72.0
47.912460832 81.0
47.917384688 61.0
47.922308544 66.0
47.927232400 64.0
47.932156256 73.0
47.937080112 78.0
47.942003968 64.0
47.946927824 63.0
47.951851680 82.0
47.956775536 61.0
47.961699392 55.0
47.966623248 71.0
47.971547104 76.0
47.976470960 62.0
47.981394816 77.0
47.986318672 89.0
47.991242528 75.0
47.996166384 77.0
48.001090240 78.0
48.006014096 68.0
48.010937952 87.0
48.015861808 60.0
48.020785664 71.0
48.025709520 75.0
48.030633376 93.0
48.035557232 66.0
48.040481088 67.0
48.045404944 68.0
48.050328800 64.0
48.055252656 73.0
48.060176512 84.0
48.065100368 73.0
48.070024224 71.0
48.074948080 65.0
48.079871936 87.0
48.084795792 78.0
48.089719648 87.0
48.094643504 67.0
48.099567360 68.0
48.104491216 79.0
48.109415072 72.0
48.114338928 80.0
48.119262784 71.0
48.124186640 76.0
48.129110496 79.0
48.134034352 77.0
48.138958208 80.0
48.143882064 69.0
48.148805920 65.0
48.153729776 66.0
48.158653632 70.0
48.163577488 74.0
48.168501344 64.0
48.173425200 81.0
48.178349056 68.0
48.183272912 80.0
48.188196768 65.0
48.193120624 64.0
48.198044480 82.0
48.202968336 83.0
48.207892192 81.0
48.212816048 76.0
48.217739904 58.0
48.222663760 70.0
48.227587616 69.0
48.232511472 78.0
48.237435328 75.0
48.242359184 80.0
48.247283040 61.0
48.252206897 76.0
48.257130753 69.0
48.262054609 78.0
48.266978465 70.0
48.271902321 81.0
48.276826177 73.0
48.281750033 57.0
48.286673889 81.0
48.291597745 64.0
48.296521601 59.0
48.301445457 63.0
48.306369313 80.0
48.311293169 82.0
48.316217025 79.0
48.321140881 84.0
48.326064737 73.0
48.330988593 69.0
48.335912449 71.0
48.340836305 74.0
48.345760161 64.0
48.350684017 77.0
48.355607873 73.0
48.360531729 68.0
48.365455585 80.0
48.370379441 69.0
48.375303297 71.0
48.380227153 66.0
48.385151009 82.0
48.390074865 86.0
48.394998721 91.0
48.399922577 72.0
48.404846433 76.0
48.409770289 78.0
48.414694145 59.0
48.419618001 81.0
48.424541857 70.0
48.429465713 70.0
48.434389569 70.0
48.439313425 68.0
48.444237281 69.0
48.449161137 71.0
48.454084993 69.0
48.459008849 71.0
48.463932705 82.0
48.468856561 78.0
48.473780417 79.0
48.478704273 69.0
48.483628129 76.0
48.488551985 60.0
48.493475841 80.0
48.498399697 68.0
48.503323553 86.0
48.508247409 89.0
48.513171265 70.0
48.518095121 85.0
48.523018977 85.0
48.527942833 86.0
48.532866689 72.0
48.537790545 54.0
48.542714401 73.0
48.547638257 75.0
48.552562113 80.0
48.557485969 65.0
48.562409825 61.0
48.567333681 79.0
48.572257537 63.0
48.577181393 87.0
48.582105249 70.0
48.587029105 88.0
48.591952961 63.0
48.596876817 91.0
48.601800673 78.0
48.606724529 64.0
48.611648385 90.0
48.616572241 77.0
48.621496097 69.0
48.626419953 66.0
48.631343809 68.0
48.636267665 82.0
48.641191521 84.0
48.646115377 74.0
48.651039233 84.0
48.655963089 77.0
48.660886945 84.0
48.665810801 87.0
48.670734657 93.0
48.675658513 95.0
48.680582369 85.0
48.685506225 83.0
48.690430081 77.0
48.695353937 75.0
48.700277793 89.0
48.705201649 75.0
48.710125505 70.0
48.715049361 81.0
48.719973217 89.0
48.724897073 68.0
48.729820929 78.0
48.734744785 78.0
48.739668641 81.0
48.744592497 93.0
48.749516353 95.0
48.754440210 76.0
48.759364066 84.0
48.764287922 73.0
48.769211778 87.0
48.774135634 65.0
48.779059490 70.0
48.783983346 97.0
48.788907202 70.0
48.793831058 77.0
48.798754914 91.0
48.803678770 70.0
48.808602626 79.0
48.813526482 83.0
48.818450338 86.0
48.823374194 87.0
48.828298050 84.0
48.833221906 63.0
48.838145762 89.0
48.843069618 94.0
48.847993474 95.0
48.852917330 83.0
48.857841186 76.0
48.862765042 81.0
48.867688898 86.0
48.872612754 91.0
48.877536610 90.0
48.882460466 97.0
48.887384322 76.0
48.892308178 90.0
48.897232034 95.0
48.902155890 85.0
48.907079746 79.0
48.912003602 77.0
48.916927458 95.0
48.921851314 100.0
48.926775170 81.0
48.931699026 85.0
48.936622882 91.0
48.941546738 82.0
48.946470594 90.0
48.951394450 80.0
48.956318306 83.0
48.961242162 87.0
48.966166018 74.0
48.971089874 72.0
48.976013730 102.0
48.980937586 89.0
48.985861442 103.0
48.990785298 82.0
48.995709154 90.0
49.000633010 88.0
49.005556866 112.0
49.010480722 105.0
49.015404578 89.0
49.020328434 88.0
49.025252290 97.0
49.030176146 88.0
49.035100002 97.0
49.040023858 96.0
49.044947714 90.0
49.049871570 97.0
49.054795426 90.0
49.059719282 80.0
49.064643138 88.0
49.069566994 81.0
49.074490850 99.0
49.079414706 102.0
49.084338562 98.0
49.089262418 110.0
49.094186274 127.0
49.099110130 91.0
49.104033986 96.0
49.108957842 120.0
49.113881698 110.0
49.118805554 89.0
49.123729410 101.0
49.128653266 108.0
49.133577122 99.0
49.138500978 132.0
49.143424834 104.0
49.148348690 110.0
49.153272546 111.0
49.158196402 99.0
49.163120258 94.0
49.168044114 97.0
49.172967970 98.0
49.177891826 102.0
49.182815682 105.0
49.187739538 99.0
49.192663394 110.0
49.197587250 104.0
49.202511106 96.0
49.207434962 119.0
49.212358818 96.0
49.217282674 111.0
49.222206530 120.0
49.227130386 119.0
49.232054242 101.0
49.236978098 108.0
49.241901954 94.0
49.246825810 109.0
49.251749667 101.0
49.256673523 117.0
49.261597379 136.0
49.266521235 108.0
49.271445091 123.0
49.276368947 122.0
49.281292803 121.0
49.286216659 140.0
49.291140515 120.0
49.296064371 124.0
49.300988227 119.0
49.305912083 127.0
49.310835939 134.0
49.315759795 142.0
49.320683651 116.0
49.325607507 134.0
49.330531363 129.0
49.335455219 132.0
49.340379075 104.0
49.345302931 127.0
49.350226787 162.0
49.355150643 150.0
49.360074499 156.0
49.364998355 118.0
49.369922211 146.0
49.374846067 116.0
49.379769923 157.0
49.384693779 134.0
49.389617635 142.0
49.394541491 123.0
49.399465347 143.0
49.404389203 158.0
49.409313059 159.0
49.414236915 151.0
49.419160771 159.0
49.424084627 150.0
49.429008483 166.0
49.433932339 174.0
49.438856195 157.0
49.443780051 158.0
49.448703907 168.0
49.453627763 202.0
49.458551619 169.0
49.463475475 180.0
49.468399331 175.0
49.473323187 188.0
49.478247043 185.0
49.483170899 184.0
49.488094755 221.0
49.493018611 196.0
49.497942467 219.0
49.502866323 207.0
49.507790179 208.0
49.512714035 214.0
49.517637891 229.0
49.522561747 231.0
49.527485603 238.0
49.532409459 246.0
49.537333315 248.0
49.542257171 231.0
49.547181027 302.0
49.552104883 266.0
49.557028739 275.0
49.561952595 272.0
49.566876451 281.0
49.571800307 274.0
49.576724163 299.0
49.581648019 317.0
49.586571875 319.0
49.591495731 322.0
49.596419587 326.0
49.601343443 343.0
49.606267299 324.0
49.611191155 358.0
49.616115011 377.0
49.621038867 413.0
49.625962723 366.0
49.630886579 423.0
49.635810435 425.0
49.640734291 484.0
49.645658147 430.0
49.650582003 462.0
49.655505859 495.0
49.660429715 480.0
49.665353571 527.0
49.670277427 516.0
49.675201283 559.0
49.680125139 558.0
49.685048995 570.0
49.689972851 609.0
49.694896707 632.0
49.699820563 626.0
49.704744419 666.0
49.709668275 654.0
49.714592131 705.0
49.719515987 745.0
49.724439843 766.0
49.729363699 806.0
49.734287555 834.0
49.739211411 856.0
49.744135267 852.0
49.749059123 982.0
49.753982980 876.0
49.758906836 1007.0
49.763830692 957.0
49.768754548 1006.0
49.773678404 1079.0
49.778602260 1093.0
49.783526116 1057.0
49.788449972 1140.0
49.793373828 1239.0
49.798297684 1150.0
49.803221540 1286.0
49.808145396 1324.0
49.813069252 1367.0
49.817993108 1470.0
49.822916964 1402.0
49.827840820 1499.0
49.832764676 1525.0
49.837688532 1607.0
49.842612388 1650.0
49.847536244 1677.0
49.852460100 1828.0
49.857383956 1802.0
49.862307812 1832.0
49.867231668 1899.0
49.872155524 1968.0
49.877079380 1933.0
49.882003236 2018.0
49.886927092 2029.0
49.891850948 2082.0
49.896774804 2043.0
49.901698660 2152.0
49.906622516 2204.0
49.911546372 2168.0
49.916470228 2195.0
49.921394084 2181.0
49.926317940 2297.0
49.931241796 2152.0
49.936165652 2161.0
49.941089508 2237.0
49.946013364 2111.0
49.950937220 2267.0
49.955861076 2207.0
49.960784932 2149.0
49.965708788 2139.0
49.970632644 2139.0
49.975556500 2089.0
49.980480356 2121.0
49.985404212 2101.0
49.990328068 2047.0
49.995251924 2067.0
50.000175780 1975.0
50.005099636 2014.0
50.010023492 1937.0
50.014947348 1896.0
50.019871204 1854.0
50.024795060 1880.0
50.029718916 1808.0
50.034642772 1771.0
50.039566628 1737.0
50.044490484 1684.0
50.049414340 1630.0
50.054338196 1660.0
50.059262052 1667.0
50.064185908 1530.0
50.069109764 1515.0
50.074033620 1516.0
50.078957476 1492.0
50.083881332 1536.0
50.088805188 1374.0
50.093729044 1362.0
50.098652900 1349.0
50.103576756 1276.0
50.108500612 1215.0
50.113424468 1212.0
50.118348324 1122.0
50.123272180 1155.0
50.128196036 1094.0
50.133119892 1096.0
50.138043748 1051.0
50.142967604 1006.0
50.147891460 992.0
50.152815316 938.0
50.157739172 933.0
50.162663028 883.0
50.167586884 822.0
50.172510740 763.0
50.177434596 752.0
50.182358452 739.0
50.187282308 739.0
50.192206164 702.0
50.197130020 673.0
50.202053876 620.0
50.206977732 627.0
50.211901588 574.0
50.216825444 576.0
50.221749300 556.0
50.226673156 586.0
50.231597012 508.0
50.236520868 469.0
50.241444724 475.0
50.246368580 486.0
50.251292437 422.0
50.256216293 412.0
50.261140149 445.0
50.266064005 421.0
50.270987861 425.0
50.275911717 389.0
50.280835573 360.0
50.285759429 358.0
50.290683285 347.0
50.295607141 426.0
50.300530997 369.0
50.305454853 323.0
50.310378709 343.0
50.315302565 329.0
50.320226421 334.0
50.325150277 318.0
50.330074133 325.0
50.334997989 303.0
50.339921845 315.0
50.344845701 275.0
50.349769557 293.0
50.354693413 276.0
50.359617269 240.0
50.364541125 278.0
50.369464981 274.0
50.374388837 238.0
50.379312693 238.0
50.384236549 259.0
50.389160405 233.0
50.394084261 240.0
50.399008117 234.0
50.403931973 228.0
50.408855829 192.0
50.413779685 226.0
50.418703541 221.0
50.423627397 224.0
50.428551253 192.0
50.433475109 215.0
50.438398965 205.0
50.443322821 174.0
50.448246677 205.0
50.453170533 178.0
50.458094389 190.0
50.463018245 181.0
50.467942101 195.0
50.472865957 201.0
50.477789813 188.0
50.482713669 140.0
50.487637525 169.0
50.492561381 142.0
50.497485237 170.0
50.502409093 185.0
50.507332949 166.0
50.512256805 179.0
50.517180661 159.0
50.522104517 147.0
50.527028373 146.0
50.531952229 144.0
50.536876085 177.0
50.541799941 137.0
50.546723797 170.0
50.551647653 142.0
50.556571509 171.0
50.561495365 169.0
50.566419221 168.0
50.571343077 159.0
50.576266933 151.0
50.581190789 137.0
50.586114645 172.0
50.591038501 146.0
50.595962357 127.0
50.600886213 144.0
50.605810069 151.0
50.610733925 150.0
50.615657781 129.0
50.620581637 138.0
50.625505493 116.0
50.630429349 132.0
50.635353205 136.0
50.640277061 133.0
50.645200917 129.0
50.650124773 130.0
50.655048629 119.0
50.659972485 132.0
50.664896341 116.0
50.669820197 125.0
50.674744053 145.0
50.679667909 122.0
50.684591765 124.0
50.689515621 140.0
50.694439477 135.0
50.699363333 137.0
50.704287189 128.0
50.709211045 125.0
50.714134901 117.0
50.719058757 142.0
50.723982613 120.0
50.728906469 118.0
50.733830325 120.0
50.738754181 118.0
50.743678037 106.0
50.748601893 121.0
50.753525750 129.0
50.758449606 111.0
50.763373462 120.0
50.768297318 122.0
50.773221174 119.0
50.778145030 130.0
50.783068886 120.0
50.787992742 109.0
50.792916598 98.0
50.797840454 106.0
50.802764310 111.0
50.807688166 109.0
50.812612022 108.0
50.817535878 111.0
50.822459734 140.0
50.827383590 120.0
50.832307446 112.0
50.837231302 120.0
50.842155158 123.0
50.847079014 127.0
50.852002870 116.0
50.856926726 101.0
50.861850582 122.0
50.866774438 121.0
50.871698294 130.0
50.876622150 136.0
50.881546006 108.0
50.886469862 144.0
50.891393718 131.0
50.896317574 127.0
50.901241430 110.0
50.906165286 146.0
50.911089142 125.0
50.916012998 120.0
50.920936854 128.0
50.925860710 127.0
50.930784566 135.0
50.935708422 129.0
50.940632278 113.0
50.945556134 114.0
50.950479990 117.0
50.955403846 128.0
50.960327702 123.0
50.965251558 126.0
50.970175414 120.0
50.975099270 111.0
50.980023126 129.0
50.984946982 132.0
50.989870838 127.0
50.994794694 120.0
50.999718550 127.0
51.004642406 132.0
51.009566262 122.0
51.014490118 114.0
51.019413974 123.0
51.024337830 134.0
51.029261686 135.0
51.034185542 136.0
51.039109398 123.0
51.044033254 151.0
51.048957110 124.0
51.053880966 115.0
51.058804822 129.0
51.063728678 129.0
51.068652534 120.0
51.073576390 159.0
51.078500246 144.0
51.083424102 143.0
51.088347958 142.0
51.093271814 124.0
51.098195670 112.0
51.103119526 139.0
51.108043382 121.0
51.112967238 126.0
51.117891094 113.0
51.122814950 148.0
51.127738806 116.0
51.132662662 138.0
51.137586518 148.0
51.142510374 134.0
51.147434230 136.0
51.152358086 148.0
51.157281942 135.0
51.162205798 152.0
51.167129654 127.0
51.172053510 134.0
51.176977366 131.0
51.181901222 134.0
51.186825078 146.0
51.191748934 142.0
51.196672790 165.0
51.201596646 130.0
51.206520502 137.0
51.211444358 158.0
51.216368214 127.0
51.221292070 140.0
51.226215926 156.0
51.231139782 155.0
51.236063638 153.0
51.240987494 128.0
51.245911350 154.0
51.250835207 151.0
51.255759063 172.0
51.260682919 160.0
51.265606775 156.0
51.270530631 150.0
51.275454487 172.0
51.280378343 161.0
51.285302199 152.0
51.290226055 159.0
51.295149911 142.0
51.300073767 165.0
51.304997623 157.0
51.309921479 168.0
51.314845335 176.0
51.319769191 154.0
51.324693047 171.0
51.329616903 172.0
51.334540759 174.0
51.339464615 162.0
51.344388471 166.0
51.349312327 181.0
51.354236183 160.0
51.359160039 160.0
51.364083895 164.0
51.369007751 170.0
51.373931607 183.0
51.378855463 165.0
51.383779319 149.0
51.388703175 187.0
51.393627031 189.0
51.398550887 172.0
51.403474743 160.0
51.408398599 170.0
51.413322455 173.0
51.418246311 177.0
51.423170167 183.0
51.428094023 184.0
51.433017879 186.0
51.437941735 173.0
51.442865591 183.0
51.447789447 203.0
51.452713303 171.0
51.457637159 176.0
51.462561015 201.0
51.467484871 154.0
51.472408727 184.0
51.477332583 206.0
51.482256439 199.0
51.487180295 202.0
51.492104151 180.0
51.497028007 164.0
51.501951863 197.0
51.506875719 193.0
51.511799575 259.0
51.516723431 194.0
51.521647287 200.0
51.526571143 192.0
51.531494999 202.0
51.536418855 214.0
51.541342711 192.0
51.546266567 186.0
51.551190423 205.0
51.556114279 213.0
51.561038135 191.0
51.565961991 267.0
51.570885847 212.0
51.575809703 207.0
51.580733559 211.0
51.585657415 190.0
51.590581271 214.0
51.595505127 201.0
51.600428983 196.0
51.605352839 210.0
51.610276695 266.0
51.615200551 261.0
51.620124407 200.0
51.625048263 220.0
51.629972119 255.0
51.634895975 274.0
51.639819831 287.0
51.644743687 262.0
51.649667543 208.0
51.654591399 269.0
51.659515255 222.0
51.664439111 218.0
51.669362967 266.0
51.674286823 280.0
51.679210679 282.0
51.684134535 267.0
51.689058391 291.0
51.693982247 286.0
51.698906103 217.0
51.703829959 299.0
51.708753815 291.0
51.713677671 315.0
51.718601527 255.0
51.723525383 262.0
51.728449239 265.0
51.733373095 287.0
51.738296951 289.0
51.743220807 266.0
51.748144663 317.0
51.753068520 305.0
51.757992376 262.0
51.762916232 309.0
51.767840088 308.0
51.772763944 312.0
51.777687800 319.0
51.782611656 306.0
51.787535512 342.0
51.792459368 300.0
51.797383224 285.0
51.802307080 345.0
51.807230936 327.0
51.812154792 352.0
51.817078648 309.0
51.822002504 329.0
51.826926360 292.0
51.831850216 319.0
51.836774072 332.0
51.841697928 295.0
51.846621784 344.0
51.851545640 345.0
51.856469496 301.0
51.861393352 324.0
51.866317208 306.0
51.871241064 353.0
51.876164920 364.0
51.881088776 336.0
51.886012632 335.0
51.890936488 327.0
51.895860344 345.0
51.900784200 346.0
51.905708056 358.0
51.910631912 372.0
51.915555768 374.0
51.920479624 385.0
51.925403480 381.0
51.930327336 382.0
51.935251192 374.0
51.940175048 384.0
51.945098904 384.0
51.950022760 437.0
51.954946616 450.0
51.959870472 415.0
51.964794328 443.0
51.969718184 432.0
51.974642040 413.0
51.979565896 385.0
51.984489752 460.0
51.989413608 365.0
51.994337464 400.0
51.999261320 459.0
52.004185176 438.0
52.009109032 475.0
52.014032888 444.0
52.018956744 470.0
52.023880600 469.0
52.028804456 492.0
52.033728312 491.0
52.038652168 469.0
52.043576024 472.0
52.048499880 509.0
52.053423736 525.0
52.058347592 508.0
52.063271448 555.0
52.068195304 526.0
52.073119160 596.0
52.078043016 531.0
52.082966872 596.0
52.087890728 533.0
52.092814584 589.0
52.097738440 587.0
52.102662296 606.0
52.107586152 634.0
52.112510008 635.0
52.117433864 634.0
52.122357720 678.0
52.127281576 676.0
52.132205432 693.0
52.137129288 699.0
52.142053144 725.0
52.146977000 784.0
52.151900856 789.0
52.156824712 795.0
52.161748568 873.0
52.166672424 883.0
52.171596280 901.0
52.176520136 948.0
52.181443992 1040.0
52.186367848 1043.0
52.191291704 1103.0
52.196215560 1248.0
52.201139416 1245.0
52.206063272 1405.0
52.210987128 1580.0
52.215910984 1552.0
52.220834840 1632.0
52.225758696 1813.0
52.230682552 1854.0
52.235606408 2070.0
52.240530264 2140.0
52.245454120 2137.0
52.250377977 2171.0
52.255301833 2183.0
52.260225689 2210.0
52.265149545 2279.0
52.270073401 2189.0
52.274997257 2159.0
52.279921113 2236.0
52.284844969 2167.0
52.289768825 2117.0
52.294692681 2057.0
52.299616537 2086.0
52.304540393 2091.0
52.309464249 2039.0
52.314388105 2109.0
52.319311961 2032.0
52.324235817 2147.0
52.329159673 2135.0
52.334083529 2215.0
52.339007385 2255.0
52.343931241 2324.0
52.348855097 2499.0
52.353778953 2697.0
52.358702809 2741.0
52.363626665 2941.0
52.368550521 3232.0
52.373474377 3320.0
52.378398233 3677.0
52.383322089 3956.0
52.388245945 4425.0
52.393169801 4821.0
52.398093657 5233.0
52.403017513 5902.0
52.407941369 6656.0
52.412865225 7399.0
52.417789081 8301.0
52.422712937 9636.0
52.427636793 10800.0
52.432560649 13062.0
52.437484505 15578.0
52.442408361 19400.0
52.447332217 24502.0
52.452256073 31995.0
52.457179929 43107.0
52.462103785 61248.0
52.467027641 90447.0
52.471951497 135628.0
52.476875353 189572.0
52.481799209 233430.0
52.486723065 258866.0
52.491646921 263232.0
52.496570777 250491.0
52.501494633 218913.0
52.506418489 171892.0
52.511342345 124276.0
52.516266201 87563.0
52.521190057 63206.0
52.526113913 46327.0
52.531037769 34768.0
52.535961625 27359.0
52.540885481 21501.0
52.545809337 18050.0
52.550733193 15412.0
52.555657049 13924.0
52.560580905 12498.0
52.565504761 12255.0
52.570428617 12131.0
52.575352473 12858.0
52.580276329 13881.0
52.585200185 15726.0
52.590124041 18628.0
52.595047897 23267.0
52.599971753 30548.0
52.604895609 42471.0
52.609819465 59326.0
52.614743321 81350.0
52.619667177 102437.0
52.624591033 119800.0
52.629514889 128297.0
52.634438745 126910.0
52.639362601 117385.0
52.644286457 99599.0
52.649210313 78645.0
52.654134169 58421.0
52.659058025 42491.0
52.663981881 30837.0
52.668905737 23089.0
52.673829593 17379.0
52.678753449 13846.0
52.683677305 11020.0
52.688601161 9161.0
52.693525017 7711.0
52.698448873 6651.0
52.703372729 5657.0
52.708296585 5037.0
52.713220441 4622.0
52.718144297 4106.0
52.723068153 3857.0
52.727992009 3479.0
52.732915865 3247.0
52.737839721 2992.0
52.742763577 2885.0
52.747687433 2738.0
52.752611290 2536.0
52.757535146 2334.0
52.762459002 2242.0
52.767382858 2156.0
52.772306714 2082.0
52.777230570 2010.0
52.782154426 1815.0
52.787078282 1832.0
52.792002138 1708.0
52.796925994 1677.0
52.801849850 1618.0
52.806773706 1579.0
52.811697562 1504.0
52.816621418 1491.0
52.821545274 1340.0
52.826469130 1251.0
52.831392986 1289.0
52.836316842 1246.0
52.841240698 1175.0
52.846164554 1108.0
52.851088410 1133.0
52.856012266 1134.0
52.860936122 1075.0
52.865859978 1030.0
52.870783834 1016.0
52.875707690 1033.0
52.880631546 921.0
52.885555402 960.0
52.890479258 931.0
52.895403114 875.0
52.900326970 919.0
52.905250826 856.0
52.910174682 785.0
52.915098538 818.0
52.920022394 783.0
52.924946250 771.0
52.929870106 814.0
52.934793962 770.0
52.939717818 689.0
52.944641674 706.0
52.949565530 708.0
52.954489386 685.0
52.959413242 646.0
52.964337098 650.0
52.969260954 659.0
52.974184810 618.0
52.979108666 602.0
52.984032522 576.0
52.988956378 627.0
52.993880234 581.0
52.998804090 515.0
53.003727946 575.0
53.008651802 563.0
53.013575658 582.0
53.018499514 543.0
53.023423370 530.0
53.028347226 507.0
53.033271082 507.0
53.038194938 543.0
53.043118794 500.0
53.048042650 477.0
53.052966506 484.0
53.057890362 449.0
53.062814218 482.0
53.067738074 461.0
53.072661930 435.0
53.077585786 435.0
53.082509642 476.0
53.087433498 399.0
53.092357354 411.0
53.097281210 426.0
53.102205066 403.0
53.107128922 413.0
53.112052778 386.0
53.116976634 348.0
53.121900490 380.0
53.126824346 389.0
53.131748202 383.0
53.136672058 363.0
53.141595914 355.0
53.146519770 351.0
53.151443626 349.0
53.156367482 345.0
53.161291338 365.0
53.166215194 354.0
53.171139050 369.0
53.176062906 341.0
53.180986762 362.0
53.185910618 327.0
53.190834474 340.0
53.195758330 345.0
53.200682186 359.0
53.205606042 348.0
53.210529898 297.0
53.215453754 299.0
53.220377610 322.0
53.225301466 318.0
53.230225322 285.0
53.235149178 278.0
53.240073034 323.0
53.244996890 303.0
53.249920747 305.0
53.254844603 266.0
53.259768459 268.0
53.264692315 288.0
53.269616171 282.0
53.274540027 286.0
53.279463883 214.0
53.284387739 289.0
53.289311595 221.0
53.294235451 270.0
53.299159307 216.0
53.304083163 276.0
53.309007019 287.0
53.313930875 304.0
53.318854731 208.0
53.323778587 270.0
53.328702443 262.0
53.333626299 189.0
53.338550155 194.0
53.343474011 258.0
53.348397867 209.0
53.353321723 261.0
53.358245579 201.0
53.363169435 207.0
53.368093291 192.0
53.373017147 189.0
53.377941003 226.0
53.382864859 205.0
53.387788715 215.0
53.392712571 216.0
53.397636427 175.0
53.402560283 228.0
53.407484139 187.0
53.412407995 196.0
53.417331851 183.0
53.422255707 184.0
53.427179563 207.0
53.432103419 164.0
53.437027275 171.0
53.441951131 201.0
53.446874987 177.0
53.451798843 172.0
53.456722699 181.0
53.461646555 160.0
53.466570411 159.0
53.471494267 183.0
53.476418123 151.0
53.481341979 159.0
53.486265835 162.0
53.491189691 159.0
53.496113547 145.0
53.501037403 145.0
53.505961259 158.0
53.510885115 167.0
53.515808971 144.0
53.520732827 150.0
53.525656683 160.0
53.530580539 147.0
53.535504395 171.0
53.540428251 146.0
53.545352107 155.0
53.550275963 155.0
53.555199819 135.0
53.560123675 149.0
53.565047531 145.0
53.569971387 147.0
53.574895243 148.0
53.579819099 121.0
53.584742955 145.0
53.589666811 154.0
53.594590667 138.0
53.599514523 135.0
53.604438379 120.0
53.609362235 125.0
53.614286091 126.0
53.619209947 137.0
53.624133803 148.0
53.629057659 136.0
53.633981515 147.0
53.638905371 142.0
53.643829227 141.0
53.648753083 113.0
53.653676939 102.0
53.658600795 115.0
53.663524651 116.0
53.668448507 123.0
53.673372363 133.0
53.678296219 109.0
53.683220075 132.0
53.688143931 135.0
53.693067787 137.0
53.697991643 121.0
53.702915499 120.0
53.707839355 120.0
53.712763211 129.0
53.717687067 130.0
53.722610923 136.0
53.727534779 95.0
53.732458635 122.0
53.737382491 106.0
53.742306347 96.0
53.747230203 130.0
53.752154060 120.0
53.757077916 104.0
53.762001772 104.0
53.766925628 104.0
53.771849484 116.0
53.776773340 132.0
53.781697196 97.0
53.786621052 115.0
53.791544908 116.0
53.796468764 108.0
53.801392620 105.0
53.806316476 123.0
53.811240332 116.0
53.816164188 105.0
53.821088044 114.0
53.826011900 105.0
53.830935756 109.0
53.835859612 101.0
53.840783468 88.0
53.845707324 91.0
53.850631180 98.0
53.855555036 108.0
53.860478892 114.0
53.865402748 94.0
53.870326604 119.0
53.875250460 85.0
53.880174316 115.0
53.885098172 92.0
53.890022028 91.0
53.894945884 96.0
53.899869740 97.0
53.904793596 96.0
53.909717452 115.0
53.914641308 106.0
53.919565164 92.0
53.924489020 95.0
53.929412876 104.0
53.934336732 96.0
53.939260588 107.0
53.944184444 95.0
53.949108300 104.0
53.954032156 111.0
53.958956012 105.0
53.963879868 114.0
53.968803724 101.0
53.973727580 98.0
53.978651436 101.0
53.983575292 93.0
53.988499148 98.0
53.993423004 93.0
53.998346860 99.0
54.003270716 81.0
54.008194572 86.0
54.013118428 95.0
54.018042284 92.0
54.022966140 99.0
54.027889996 96.0
54.032813852 101.0
54.037737708 90.0
54.042661564 107.0
54.047585420 85.0
54.052509276 88.0
54.057433132 89.0
54.062356988 85.0
54.067280844 84.0
54.072204700 79.0
54.077128556 102.0
54.082052412 80.0
54.086976268 73.0
54.091900124 96.0
54.096823980 91.0
54.101747836 105.0
54.106671692 86.0
54.111595548 93.0
54.116519404 89.0
54.121443260 87.0
54.126367116 92.0
54.131290972 86.0
54.136214828 88.0
54.141138684 87.0
54.146062540 80.0
54.150986396 78.0
54.155910252 75.0
54.160834108 85.0
54.165757964 87.0
54.170681820 102.0
54.175605676 79.0
54.180529532 76.0
54.185453388 87.0
54.190377244 81.0
54.195301100 101.0
54.200224956 75.0
54.205148812 90.0
54.210072668 72.0
54.214996524 85.0
54.219920380 76.0
54.224844236 109.0
54.229768092 85.0
54.234691948 80.0
54.239615804 79.0
54.244539660 78.0
54.249463517 86.0
54.254387373 74.0
54.259311229 98.0
54.264235085 73.0
54.269158941 80.0
54.274082797 90.0
54.279006653 79.0
54.283930509 76.0
54.288854365 106.0
54.293778221 78.0
54.298702077 95.0
54.303625933 75.0
54.308549789 80.0
54.313473645 93.0
54.318397501 91.0
54.323321357 79.0
54.328245213 86.0
54.333169069 87.0
54.338092925 87.0
54.343016781 108.0
54.347940637 97.0
54.352864493 85.0
54.357788349 84.0
54.362712205 86.0
54.367636061 75.0
54.372559917 71.0
54.377483773 89.0
54.382407629 100.0
54.387331485 94.0
54.392255341 81.0
54.397179197 94.0
54.402103053 65.0
54.407026909 74.0
54.411950765 87.0
54.416874621 71.0
54.421798477 98.0
54.426722333 61.0
54.431646189 82.0
54.436570045 80.0
54.441493901 79.0
54.446417757 80.0
54.451341613 70.0
54.456265469 77.0
54.461189325 69.0
54.466113181 74.0
54.471037037 70.0
54.475960893 78.0
54.480884749 79.0
54.485808605 78.0
54.490732461 86.0
54.495656317 68.0
54.500580173 76.0
54.505504029 77.0
54.510427885 78.0
54.515351741 64.0
54.520275597 82.0
54.525199453 86.0
54.530123309 76.0
54.535047165 90.0
54.539971021 74.0
54.544894877 89.0
54.549818733 58.0
54.554742589 70.0
54.559666445 92.0
54.564590301 80.0
54.569514157 78.0
54.574438013 72.0
54.579361869 64.0
54.584285725 83.0
54.589209581 83.0
54.594133437 89.0
54.599057293 71.0
54.603981149 74.0
54.608905005 79.0
54.613828861 79.0
54.618752717 86.0
54.623676573 88.0
54.628600429 71.0
54.633524285 79.0
54.638448141 79.0
54.643371997 90.0
54.648295853 67.0
54.653219709 83.0
54.658143565 80.0
54.663067421 77.0
54.667991277 69.0
54.672915133 71.0
54.677838989 67.0
54.682762845 75.0
54.687686701 82.0
54.692610557 77.0
54.697534413 59.0
54.702458269 64.0
54.707382125 78.0
54.712305981 78.0
54.717229837 70.0
54.722153693 80.0
54.727077549 65.0
54.732001405 65.0
54.736925261 86.0
54.741849117 67.0
54.746772973 65.0
54.751696830 66.0
54.756620686 83.0
54.761544542 66.0
54.766468398 75.0
54.771392254 76.0
54.776316110 78.0
54.781239966 58.0
54.786163822 80.0
54.791087678 62.0
54.796011534 83.0
54.800935390 58.0
54.805859246 82.0
54.810783102 82.0
54.815706958 73.0
54.820630814 79.0
54.825554670 77.0
54.830478526 69.0
54.835402382 69.0
54.840326238 83.0
54.845250094 73.0
54.850173950 71.0
54.855097806 80.0
54.860021662 72.0
54.864945518 75.0
54.869869374 72.0
54.874793230 64.0
54.879717086 77.0
54.884640942 81.0
54.889564798 67.0
54.894488654 69.0
54.899412510 77.0
54.904336366 92.0
54.909260222 83.0
54.914184078 73.0
54.919107934 66.0
54.924031790 67.0
54.928955646 85.0
54.933879502 75.0
54.938803358 63.0
54.943727214 67.0
54.948651070 65.0
54.953574926 69.0
54.958498782 70.0
54.963422638 84.0
54.968346494 76.0
54.973270350 67.0
54.978194206 79.0
54.983118062 62.0
54.988041918 68.0
54.992965774 76.0
54.997889630 87.0
