45.002461930 65.0
45.007385786 48.0
45.012309642 56.0
45.017233498 46.0
45.022157354 46.0
45.027081210 67.0
45.032005066 63.0
45.036928922 49.0
45.041852778 61.0
45.046776634 58.0
45.051700490 51.0
45.056624346 44.0
45.061548202 54.0
45.066472058 65.0
45.071395914 60.0
45.076319770 38.0
45.081243626 48.0
45.086167482 54.0
45.091091338 52.0
45.096015194 59.0
45.100939050 56.0
45.105862906 54.0
45.110786762 45.0
45.115710618 67.0
45.120634474 40.0
45.125558330 48.0
45.130482186 52.0
45.135406042 56.0
45.140329898 47.0
45.145253754 52.0
45.150177610 51.0
45.155101466 44.0
45.160025322 40.0
45.164949178 40.0
45.169873034 51.0
45.174796890 43.0
45.179720746 50.0
45.184644602 52.0
45.189568458 60.0
45.194492314 54.0
45.199416170 48.0
45.204340026 48.0
45.209263882 41.0
45.214187738 59.0
45.219111594 62.0
45.224035450 46.0
45.228959306 33.0
45.233883162 47.0
45.238807018 47.0
45.243730874 54.0
45.248654730 45.0
45.253578587 56.0
45.258502443 66.0
45.263426299 61.0
45.268350155 50.0
45.273274011 48.0
45.278197867 52.0
45.283121723 44.0
45.288045579 51.0
45.292969435 61.0
45.297893291 58.0
45.302817147 48.0
45.307741003 50.0
45.312664859 39.0
45.317588715 53.0
45.322512571 40.0
45.327436427 52.0
45.332360283 50.0
45.337284139 42.0
45.342207995 51.0
45.347131851 50.0
45.352055707 41.0
45.356979563 49.0
45.361903419 47.0
45.366827275 52.0
45.371751131 54.0
45.376674987 52.0
45.381598843 54.0
45.386522699 56.0
45.391446555 55.0
45.396370411 45.0
45.401294267 52.0
45.406218123 43.0
45.411141979 57.0
45.416065835 41.0
45.420989691 48.0
45.425913547 60.0
45.430837403 52.0
45.435761259 38.0
45.440685115 51.0
45.445608971 61.0
45.450532827 50.0
45.455456683 47.0
45.460380539 63.0
45.465304395 34.0
45.470228251 62.0
45.475152107 47.0
45.480075963 52.0
45.484999819 40.0
45.489923675 45.0
45.494847531 47.0
45.499771387 53.0
45.504695243 47.0
45.509619099 45.0
45.514542955 52.0
45.519466811 50.0
45.524390667 50.0
45.529314523 53.0
45.534238379 26.0
45.539162235 42.0
45.544086091 46.0
45.549009947 49.0
45.553933803 64.0
45.558857659 39.0
45.563781515 42.0
45.568705371 49.0
45.573629227 53.0
45.578553083 52.0
45.583476939 43.0
45.588400795 60.0
45.593324651 48.0
45.598248507 49.0
45.603172363 57.0
45.608096219 62.0
45.613020075 41.0
45.617943931 44.0
45.622867787 52.0
45.627791643 48.0
45.632715499 49.0
45.637639355 49.0
45.642563211 55.0
45.647487067 50.0
45.652410923 56.0
45.657334779 52.0
45.662258635 56.0
45.667182491 54.0
45.672106347 57.0
45.677030203 57.0
45.681954059 60.0
45.686877915 43.0
45.691801771 55.0
45.696725627 52.0
45.701649483 54.0
45.706573339 49.0
45.711497195 46.0
45.716421051 39.0
45.721344907 50.0
45.726268763 38.0
45.731192619 37.0
45.736116475 47.0
45.741040331 59.0
45.745964187 41.0
45.750888043 61.0
45.755811900 34.0
45.760735756 49.0
45.765659612 47.0
45.770583468 52.0
45.775507324 32.0
45.780431180 43.0
45.785355036 45.0
45.790278892 43.0
45.795202748 40.0
45.800126604 45.0
45.805050460 56.0
45.809974316 47.0
45.814898172 48.0
45.819822028 48.0
45.824745884 50.0
45.829669740 49.0
45.834593596 52.0
45.839517452 50.0
45.844441308 41.0
45.849365164 60.0
45.854289020 55.0
45.859212876 44.0
45.864136732 49.0
45.869060588 65.0
45.873984444 58.0
45.878908300 47.0
45.883832156 41.0
45.888756012 50.0
45.893679868 53.0
45.898603724 53.0
45.903527580 54.0
45.908451436 53.0
45.913375292 50.0
45.918299148 46.0
45.923223004 48.0
45.928146860 42.0
45.933070716 46.0
45.937994572 62.0
45.942918428 40.0
45.947842284 45.0
45.952766140 47.0
45.957689996 39.0
45.962613852 60.0
45.967537708 48.0
45.972461564 48.0
45.977385420 55.0
45.982309276 51.0
45.987233132 47.0
45.992156988 41.0
45.997080844 49.0
46.002004700 44.0
46.006928556 55.0
46.011852412 52.0
46.016776268 54.0
46.021700124 45.0
46.026623980 42.0
46.031547836 45.0
46.036471692 49.0
46.041395548 32.0
46.046319404 57.0
46.051243260 44.0
46.056167116 52.0
46.061090972 40.0
46.066014828 40.0
46.070938684 39.0
46.075862540 50.0
46.080786396 40.0
46.085710252 49.0
46.090634108 45.0
46.095557964 46.0
46.100481820 36.0
46.105405676 52.0
46.110329532 53.0
46.115253388 46.0
46.120177244 59.0
46.125101100 55.0
46.130024956 51.0
46.134948812 49.0
46.139872668 41.0
46.144796524 62.0
46.149720380 53.0
46.154644236 60.0
46.159568092 47.0
46.164491948 51.0
46.169415804 48.0
46.174339660 45.0
46.179263516 51.0
46.184187372 51.0
46.189111228 58.0
46.194035084 49.0
46.198958940 46.0
46.203882796 47.0
46.208806652 30.0
46.213730508 46.0
46.218654364 37.0
46.223578220 52.0
46.228502076 32.0
46.233425932 49.0
46.238349788 59.0
46.243273644 54.0
46.248197500 55.0
46.253121357 52.0
46.258045213 43.0
46.262969069 46.0
46.267892925 43.0
46.272816781 58.0
46.277740637 39.0
46.282664493 54.0
46.287588349 56.0
46.292512205 52.0
46.297436061 34.0
46.302359917 42.0
46.307283773 48.0
46.312207629 52.0
46.317131485 42.0
46.322055341 50.0
46.326979197 62.0
46.331903053 48.0
46.336826909 37.0
46.341750765 43.0
46.346674621 53.0
46.351598477 40.0
46.356522333 51.0
46.361446189 35.0
46.366370045 58.0
46.371293901 45.0
46.376217757 52.0
46.381141613 34.0
46.386065469 47.0
46.390989325 37.0
46.395913181 60.0
46.400837037 60.0
46.405760893 44.0
46.410684749 33.0
46.415608605 56.0
46.420532461 47.0
46.425456317 58.0
46.430380173 68.0
46.435304029 41.0
46.440227885 43.0
46.445151741 54.0
46.450075597 44.0
46.454999453 56.0
46.459923309 50.0
46.464847165 40.0
46.469771021 59.0
46.474694877 51.0
46.479618733 56.0
46.484542589 45.0
46.489466445 29.0
46.494390301 60.0
46.499314157 48.0
46.504238013 38.0
46.509161869 57.0
46.514085725 48.0
46.519009581 48.0
46.523933437 52.0
46.528857293 41.0
46.533781149 52.0
46.538705005 53.0
46.543628861 58.0
46.548552717 41.0
46.553476573 53.0
46.558400429 47.0
46.563324285 49.0
46.568248141 52.0
46.573171997 40.0
46.578095853 36.0
46.583019709 51.0
46.587943565 52.0
46.592867421 52.0
46.597791277 39.0
46.602715133 62.0
46.607638989 52.0
46.612562845 55.0
46.617486701 55.0
46.622410557 53.0
46.627334413 57.0
46.632258269 42.0
46.637182125 48.0
46.642105981 51.0
46.647029837 39.0
46.651953693 50.0
46.656877549 57.0
46.661801405 54.0
46.666725261 59.0
46.671649117 58.0
46.676572973 58.0
46.681496829 33.0
46.686420685 49.0
46.691344541 55.0
46.696268397 51.0
46.701192253 73.0
46.706116109 50.0
46.711039965 55.0
46.715963821 47.0
46.720887677 68.0
46.725811533 51.0
46.730735389 52.0
46.735659245 43.0
46.740583101 61.0
46.745506957 52.0
46.750430813 47.0
46.755354670 57.0
46.760278526 52.0
46.765202382 56.0
46.770126238 53.0
46.775050094 57.0
46.779973950 61.0
46.784897806 61.0
46.789821662 62.0
46.794745518 66.0
46.799669374 42.0
46.804593230 49.0
46.809517086 57.0
46.814440942 50.0
46.819364798 54.0
46.824288654 46.0
46.829212510 60.0
46.834136366 40.0
46.839060222 54.0
46.843984078 63.0
46.848907934 64.0
46.853831790 62.0
46.858755646 50.0
46.863679502 58.0
46.868603358 57.0
46.873527214 54.0
46.878451070 59.0
46.883374926 60.0
46.888298782 51.0
46.893222638 58.0
46.898146494 56.0
46.903070350 49.0
46.907994206 47.0
46.912918062 46.0
46.917841918 57.0
46.922765774 55.0
46.927689630 63.0
46.932613486 58.0
46.937537342 60.0
46.942461198 65.0
46.947385054 70.0
46.952308910 60.0
46.957232766 55.0
46.962156622 64.0
46.967080478 71.0
46.972004334 65.0
46.976928190 51.0
46.981852046 59.0
46.986775902 81.0
46.991699758 60.0
46.996623614 64.0
47.001547470 58.0
47.006471326 78.0
47.011395182 64.0
47.016319038 81.0
47.021242894 79.0
47.026166750 95.0
47.031090606 98.0
47.036014462 78.0
47.040938318 88.0
47.045862174 119.0
47.050786030 125.0
47.055709886 153.0
47.060633742 189.0
47.065557598 256.0
47.070481454 302.0
47.075405310 352.0
47.080329166 444.0
47.085253022 559.0
47.090176878 699.0
47.095100734 776.0
47.100024590 901.0
47.104948446 990.0
47.109872302 1035.0
47.114796158 929.0
47.119720014 870.0
47.124643870 722.0
47.129567726 645.0
47.134491582 492.0
47.139415438 447.0
47.144339294 356.0
47.149263150 322.0
47.154187006 346.0
47.159110862 257.0
47.164034718 276.0
47.168958574 255.0
47.173882430 217.0
47.178806286 186.0
47.183730142 154.0
47.188653998 171.0
47.193577854 158.0
47.198501710 141.0
47.203425566 121.0
47.208349422 105.0
47.213273278 104.0
47.218197134 100.0
47.223120990 121.0
47.228044846 80.0
47.232968702 79.0
47.237892558 81.0
47.242816414 82.0
47.247740270 78.0
47.252664127 88.0
47.257587983 76.0
47.262511839 96.0
47.267435695 74.0
47.272359551 70.0
47.277283407 62.0
47.282207263 82.0
47.287131119 74.0
47.292054975 60.0
47.296978831 70.0
47.301902687 62.0
47.306826543 82.0
47.311750399 69.0
47.316674255 66.0
47.321598111 67.0
47.326521967 64.0
47.331445823 57.0
47.336369679 81.0
47.341293535 56.0
47.346217391 59.0
47.351141247 76.0
47.356065103 65.0
47.360988959 58.0
47.365912815 59.0
47.370836671 65.0
47.375760527 60.0
47.380684383 72.0
47.385608239 67.0
47.390532095 63.0
47.395455951 55.0
47.400379807 68.0
47.405303663 55.0
47.410227519 63.0
47.415151375 67.0
47.420075231 47.0
47.424999087 48.0
47.429922943 60.0
47.434846799 66.0
47.439770655 67.0
47.444694511 74.0
47.449618367 62.0
47.454542223 59.0
47.459466079 71.0
47.464389935 52.0
47.469313791 62.0
47.474237647 53.0
47.479161503 56.0
47.484085359 65.0
47.489009215 58.0
47.493933071 56.0
47.498856927 57.0
47.503780783 73.0
47.508704639 83.0
47.513628495 52.0
47.518552351 58.0
47.523476207 58.0
47.528400063 76.0
47.533323919 52.0
47.538247775 66.0
47.543171631 69.0
47.548095487 60.0
47.553019343 53.0
47.557943199 49.0
47.562867055 56.0
47.567790911 66.0
47.572714767 75.0
47.577638623 55.0
47.582562479 48.0
47.587486335 66.0
47.592410191 52.0
47.597334047 53.0
47.602257903 62.0
47.607181759 62.0
47.612105615 57.0
47.617029471 61.0
47.621953327 63.0
47.626877183 57.0
47.631801039 67.0
47.636724895 66.0
47.641648751 62.0
47.646572607 53.0
47.651496463 60.0
47.656420319 54.0
47.661344175 62.0
47.666268031 62.0
47.671191887 53.0
47.676115743 61.0
47.681039599 59.0
47.685963455 70.0
47.690887311 58.0
47.695811167 61.0
47.700735023 55.0
47.705658879 55.0
47.710582735 75.0
47.715506591 60.0
47.720430447 62.0
47.725354303 48.0
47.730278159 53.0
47.735202015 59.0
47.740125871 50.0
47.745049727 60.0
47.749973583 58.0
47.754897440 50.0
47.759821296 55.0
47.764745152 57.0
47.769669008 63.0
47.774592864 75.0
47.779516720 52.0
47.784440576 49.0
47.789364432 52.0
47.794288288 58.0
47.799212144 57.0
47.804136000 67.0
47.809059856 63.0
47.813983712 61.0
47.818907568 62.0
47.823831424 52.0
47.828755280 64.0
47.833679136 69.0
47.838602992 56.0
47.843526848 48.0
47.848450704 57.0
47.853374560 52.0
47.858298416 62.0
47.863222272 58.0
47.868146128 54.0
47.873069984 45.0
47.877993840 59.0
47.882917696 57.0
47.887841552 58.0
47.892765408 62.0
47.897689264 58.0
47.902613120 63.0
47.907536976 63.0
47.912460832 64.0
47.917384688 64.0
47.922308544 67.0
47.927232400 65.0
47.932156256 72.0
47.937080112 61.0
47.942003968 54.0
47.946927824 60.0
47.951851680 59.0
47.956775536 66.0
47.961699392 52.0
47.966623248 51.0
47.971547104 44.0
47.976470960 58.0
47.981394816 60.0
47.986318672 52.0
47.991242528 48.0
47.996166384 69.0
48.001090240 56.0
48.006014096 50.0
48.010937952 65.0
48.015861808 42.0
48.020785664 61.0
48.025709520 53.0
48.030633376 66.0
48.035557232 50.0
48.040481088 56.0
48.045404944 62.0
48.050328800 66.0
48.055252656 59.0
48.060176512 51.0
48.065100368 61.0
48.070024224 55.0
48.074948080 55.0
48.079871936 70.0
48.084795792 60.0
48.089719648 63.0
48.094643504 59.0
48.099567360 60.0
48.104491216 72.0
48.109415072 59.0
48.114338928 50.0
48.119262784 50.0
48.124186640 56.0
48.129110496 49.0
48.134034352 61.0
48.138958208 58.0
48.143882064 63.0
48.148805920 67.0
48.153729776 53.0
48.158653632 50.0
48.163577488 42.0
48.168501344 62.0
48.173425200 57.0
48.178349056 63.0
48.183272912 59.0
48.188196768 73.0
48.193120624 50.0
48.198044480 57.0
48.202968336 63.0
48.207892192 73.0
48.212816048 59.0
48.217739904 66.0
48.222663760 54.0
48.227587616 65.0
48.232511472 45.0
48.237435328 67.0
48.242359184 49.0
48.247283040 59.0
48.252206897 66.0
48.257130753 63.0
48.262054609 62.0
48.266978465 59.0
48.271902321 58.0
48.276826177 52.0
48.281750033 55.0
48.286673889 69.0
48.291597745 52.0
48.296521601 70.0
48.301445457 58.0
48.306369313 58.0
48.311293169 61.0
48.316217025 67.0
48.321140881 61.0
48.326064737 52.0
48.330988593 56.0
48.335912449 53.0
48.340836305 60.0
48.345760161 45.0
48.350684017 54.0
48.355607873 61.0
48.360531729 41.0
48.365455585 69.0
48.370379441 56.0
48.375303297 61.0
48.380227153 60.0
48.385151009 54.0
48.390074865 48.0
48.394998721 57.0
48.399922577 66.0
48.404846433 67.0
48.409770289 70.0
48.414694145 71.0
48.419618001 64.0
48.424541857 54.0
48.429465713 68.0
48.434389569 65.0
48.439313425 60.0
48.444237281 49.0
48.449161137 49.0
48.454084993 49.0
48.459008849 69.0
48.463932705 56.0
48.468856561 78.0
48.473780417 65.0
48.478704273 64.0
48.483628129 63.0
48.488551985 54.0
48.493475841 63.0
48.498399697 62.0
48.503323553 63.0
48.508247409 60.0
48.513171265 63.0
48.518095121 57.0
48.523018977 78.0
48.527942833 56.0
48.532866689 46.0
48.537790545 66.0
48.542714401 48.0
48.547638257 47.0
48.552562113 72.0
48.557485969 69.0
48.562409825 58.0
48.567333681 40.0
48.572257537 53.0
48.577181393 60.0
48.582105249 73.0
48.587029105 56.0
48.591952961 69.0
48.596876817 70.0
48.601800673 67.0
48.606724529 54.0
48.611648385 64.0
48.616572241 63.0
48.621496097 67.0
48.626419953 66.0
48.631343809 85.0
48.636267665 53.0
48.641191521 70.0
48.646115377 53.0
48.651039233 62.0
48.655963089 64.0
48.660886945 64.0
48.665810801 64.0
48.670734657 52.0
48.675658513 64.0
48.680582369 71.0
48.685506225 59.0
48.690430081 66.0
48.695353937 64.0
48.700277793 55.0
48.705201649 55.0
48.710125505 72.0
48.715049361 62.0
48.719973217 62.0
48.724897073 67.0
48.729820929 76.0
48.734744785 87.0
48.739668641 56.0
48.744592497 82.0
48.749516353 87.0
48.754440210 53.0
48.759364066 68.0
48.764287922 63.0
48.769211778 55.0
48.774135634 72.0
48.779059490 62.0
48.783983346 69.0
48.788907202 63.0
48.793831058 67.0
48.798754914 81.0
48.803678770 65.0
48.808602626 62.0
48.813526482 80.0
48.818450338 68.0
48.823374194 66.0
48.828298050 64.0
48.833221906 76.0
48.838145762 70.0
48.843069618 74.0
48.847993474 77.0
48.852917330 67.0
48.857841186 66.0
48.862765042 70.0
48.867688898 90.0
48.872612754 76.0
48.877536610 70.0
48.882460466 71.0
48.887384322 66.0
48.892308178 80.0
48.897232034 80.0
48.902155890 80.0
48.907079746 74.0
48.912003602 70.0
48.916927458 75.0
48.921851314 67.0
48.926775170 81.0
48.931699026 81.0
48.936622882 77.0
48.941546738 60.0
48.946470594 73.0
48.951394450 71.0
48.956318306 72.0
48.961242162 83.0
48.966166018 69.0
48.971089874 62.0
48.976013730 73.0
48.980937586 60.0
48.985861442 82.0
48.990785298 83.0
48.995709154 78.0
49.000633010 84.0
49.005556866 87.0
49.010480722 63.0
49.015404578 78.0
49.020328434 81.0
49.025252290 74.0
49.030176146 73.0
49.035100002 71.0
49.040023858 78.0
49.044947714 76.0
49.049871570 80.0
49.054795426 72.0
49.059719282 86.0
49.064643138 96.0
49.069566994 104.0
49.074490850 85.0
49.079414706 74.0
49.084338562 82.0
49.089262418 88.0
49.094186274 82.0
49.099110130 83.0
49.104033986 85.0
49.108957842 95.0
49.113881698 91.0
49.118805554 81.0
49.123729410 102.0
49.128653266 89.0
49.133577122 96.0
49.138500978 92.0
49.143424834 83.0
49.148348690 86.0
49.153272546 101.0
49.158196402 100.0
49.163120258 86.0
49.168044114 77.0
49.172967970 93.0
49.177891826 107.0
49.182815682 94.0
49.187739538 86.0
49.192663394 102.0
49.197587250 109.0
49.202511106 98.0
49.207434962 81.0
49.212358818 105.0
49.217282674 88.0
49.222206530 106.0
49.227130386 105.0
49.232054242 112.0
49.236978098 99.0
49.241901954 89.0
49.246825810 98.0
49.251749667 118.0
49.256673523 117.0
49.261597379 118.0
49.266521235 106.0
49.271445091 101.0
49.276368947 123.0
49.281292803 110.0
49.286216659 130.0
49.291140515 117.0
49.296064371 103.0
49.300988227 111.0
49.305912083 116.0
49.310835939 116.0
49.315759795 116.0
49.320683651 121.0
49.325607507 113.0
49.330531363 125.0
49.335455219 121.0
49.340379075 128.0
49.345302931 124.0
49.350226787 135.0
49.355150643 123.0
49.360074499 114.0
49.364998355 142.0
49.369922211 133.0
49.374846067 138.0
49.379769923 119.0
49.384693779 132.0
49.389617635 119.0
49.394541491 114.0
49.399465347 164.0
49.404389203 146.0
49.409313059 142.0
49.414236915 129.0
49.419160771 160.0
49.424084627 152.0
49.429008483 148.0
49.433932339 141.0
49.438856195 144.0
49.443780051 167.0
49.448703907 147.0
49.453627763 172.0
49.458551619 174.0
49.463475475 168.0
49.468399331 185.0
49.473323187 159.0
49.478247043 186.0
49.483170899 173.0
49.488094755 165.0
49.493018611 161.0
49.497942467 193.0
49.502866323 200.0
49.507790179 201.0
49.512714035 210.0
49.517637891 209.0
49.522561747 220.0
49.527485603 196.0
49.532409459 196.0
49.537333315 206.0
49.542257171 213.0
49.547181027 211.0
49.552104883 237.0
49.557028739 204.0
49.561952595 255.0
49.566876451 268.0
49.571800307 281.0
49.576724163 258.0
49.581648019 286.0
49.586571875 285.0
49.591495731 286.0
49.596419587 296.0
49.601343443 299.0
49.606267299 297.0
49.611191155 303.0
49.616115011 299.0
49.621038867 337.0
49.625962723 366.0
49.630886579 347.0
49.635810435 365.0
49.640734291 350.0
49.645658147 355.0
49.650582003 393.0
49.655505859 433.0
49.660429715 411.0
49.665353571 452.0
49.670277427 400.0
49.675201283 470.0
49.680125139 465.0
49.685048995 519.0
49.689972851 504.0
49.694896707 508.0
49.699820563 524.0
49.704744419 565.0
49.709668275 535.0
49.714592131 613.0
49.719515987 591.0
49.724439843 634.0
49.729363699 634.0
49.734287555 692.0
49.739211411 703.0
49.744135267 809.0
49.749059123 781.0
49.753982980 827.0
49.758906836 878.0
49.763830692 892.0
49.768754548 902.0
49.773678404 1019.0
49.778602260 952.0
49.783526116 1054.0
49.788449972 1053.0
49.793373828 1137.0
49.798297684 1122.0
49.803221540 1188.0
49.808145396 1246.0
49.813069252 1277.0
49.817993108 1309.0
49.822916964 1334.0
49.827840820 1373.0
49.832764676 1434.0
49.837688532 1542.0
49.842612388 1558.0
49.847536244 1573.0
49.852460100 1675.0
49.857383956 1775.0
49.862307812 1781.0
49.867231668 1831.0
49.872155524 1879.0
49.877079380 1956.0
49.882003236 2045.0
49.886927092 2156.0
49.891850948 2219.0
49.896774804 2279.0
49.901698660 2346.0
49.906622516 2330.0
49.911546372 2498.0
49.916470228 2615.0
49.921394084 2557.0
49.926317940 2703.0
49.931241796 2855.0
49.936165652 2715.0
49.941089508 2822.0
49.946013364 2844.0
49.950937220 2953.0
49.955861076 2870.0
49.960784932 2963.0
49.965708788 2926.0
49.970632644 2939.0
49.975556500 2913.0
49.980480356 2891.0
49.985404212 2820.0
49.990328068 2813.0
49.995251924 2728.0
50.000175780 2790.0
50.005099636 2730.0
50.010023492 2605.0
50.014947348 2624.0
50.019871204 2532.0
50.024795060 2565.0
50.029718916 2502.0
50.034642772 2450.0
50.039566628 2471.0
50.044490484 2408.0
50.049414340 2331.0
50.054338196 2333.0
50.059262052 2270.0
50.064185908 2319.0
50.069109764 2274.0
50.074033620 2149.0
50.078957476 2134.0
50.083881332 2068.0
50.088805188 2089.0
50.093729044 2019.0
50.098652900 1997.0
50.103576756 1899.0
50.108500612 1887.0
50.113424468 1743.0
50.118348324 1751.0
50.123272180 1625.0
50.128196036 1750.0
50.133119892 1548.0
50.138043748 1580.0
50.142967604 1578.0
50.147891460 1449.0
50.152815316 1291.0
50.157739172 1313.0
50.162663028 1309.0
50.167586884 1307.0
50.172510740 1186.0
50.177434596 1103.0
50.182358452 1051.0
50.187282308 1024.0
50.192206164 963.0
50.197130020 987.0
50.202053876 932.0
50.206977732 894.0
50.211901588 872.0
50.216825444 793.0
50.221749300 745.0
50.226673156 744.0
50.231597012 724.0
50.236520868 626.0
50.241444724 686.0
50.246368580 620.0
50.251292437 611.0
50.256216293 582.0
50.261140149 596.0
50.266064005 567.0
50.270987861 515.0
50.275911717 553.0
50.280835573 510.0
50.285759429 455.0
50.290683285 456.0
50.295607141 453.0
50.300530997 450.0
50.305454853 446.0
50.310378709 420.0
50.315302565 407.0
50.320226421 400.0
50.325150277 388.0
50.330074133 357.0
50.334997989 353.0
50.339921845 378.0
50.344845701 338.0
50.349769557 375.0
50.354693413 307.0
50.359617269 322.0
50.364541125 315.0
50.369464981 302.0
50.374388837 268.0
50.379312693 297.0
50.384236549 283.0
50.389160405 237.0
50.394084261 282.0
50.399008117 298.0
50.403931973 272.0
50.408855829 284.0
50.413779685 239.0
50.418703541 237.0
50.423627397 268.0
50.428551253 241.0
50.433475109 278.0
50.438398965 200.0
50.443322821 215.0
50.448246677 220.0
50.453170533 221.0
50.458094389 202.0
50.463018245 181.0
50.467942101 199.0
50.472865957 172.0
50.477789813 206.0
50.482713669 192.0
50.487637525 192.0
50.492561381 187.0
50.497485237 198.0
50.502409093 187.0
50.507332949 158.0
50.512256805 178.0
50.517180661 188.0
50.522104517 172.0
50.527028373 183.0
50.531952229 174.0
50.536876085 179.0
50.541799941 168.0
50.546723797 182.0
50.551647653 151.0
50.556571509 171.0
50.561495365 170.0
50.566419221 178.0
50.571343077 182.0
50.576266933 168.0
50.581190789 164.0
50.586114645 148.0
50.591038501 152.0
50.595962357 157.0
50.600886213 158.0
50.605810069 137.0
50.610733925 152.0
50.615657781 139.0
50.620581637 166.0
50.625505493 122.0
50.630429349 126.0
50.635353205 156.0
50.640277061 129.0
50.645200917 121.0
50.650124773 129.0
50.655048629 126.0
50.659972485 131.0
50.664896341 139.0
50.669820197 122.0
50.674744053 139.0
50.679667909 127.0
50.684591765 138.0
50.689515621 124.0
50.694439477 125.0
50.699363333 121.0
50.704287189 134.0
50.709211045 127.0
50.714134901 125.0
50.719058757 127.0
50.723982613 121.0
50.728906469 127.0
50.733830325 103.0
50.738754181 116.0
50.743678037 118.0
50.748601893 109.0
50.753525750 114.0
50.758449606 114.0
50.763373462 129.0
50.768297318 124.0
50.773221174 127.0
50.778145030 107.0
50.783068886 117.0
50.787992742 117.0
50.792916598 104.0
50.797840454 129.0
50.802764310 127.0
50.807688166 125.0
50.812612022 126.0
50.817535878 118.0
50.822459734 142.0
50.827383590 104.0
50.832307446 113.0
50.837231302 99.0
50.842155158 118.0
50.847079014 119.0
50.852002870 122.0
50.856926726 131.0
50.861850582 104.0
50.866774438 121.0
50.871698294 115.0
50.876622150 97.0
50.881546006 134.0
50.886469862 115.0
50.891393718 119.0
50.896317574 122.0
50.901241430 120.0
50.906165286 144.0
50.911089142 121.0
50.916012998 110.0
50.920936854 131.0
50.925860710 115.0
50.930784566 127.0
50.935708422 147.0
50.940632278 135.0
50.945556134 110.0
50.950479990 130.0
50.955403846 103.0
50.960327702 110.0
50.965251558 138.0
50.970175414 117.0
50.975099270 130.0
50.980023126 101.0
50.984946982 122.0
50.989870838 136.0
50.994794694 120.0
50.999718550 118.0
51.004642406 135.0
51.009566262 105.0
51.014490118 116.0
51.019413974 126.0
51.024337830 143.0
51.029261686 148.0
51.034185542 125.0
51.039109398 112.0
51.044033254 134.0
51.048957110 143.0
51.053880966 120.0
51.058804822 146.0
51.063728678 147.0
51.068652534 119.0
51.073576390 118.0
51.078500246 123.0
51.083424102 114.0
51.088347958 125.0
51.093271814 128.0
51.098195670 132.0
51.103119526 118.0
51.108043382 143.0
51.112967238 130.0
51.117891094 98.0
51.122814950 127.0
51.127738806 130.0
51.132662662 131.0
51.137586518 126.0
51.142510374 145.0
51.147434230 134.0
51.152358086 140.0
51.157281942 130.0
51.162205798 142.0
51.167129654 142.0
51.172053510 124.0
51.176977366 141.0
51.181901222 145.0
51.186825078 125.0
51.191748934 138.0
51.196672790 157.0
51.201596646 139.0
51.206520502 119.0
51.211444358 150.0
51.216368214 141.0
51.221292070 140.0
51.226215926 144.0
51.231139782 143.0
51.236063638 125.0
51.240987494 161.0
51.245911350 134.0
51.250835207 128.0
51.255759063 141.0
51.260682919 128.0
51.265606775 150.0
51.270530631 113.0
51.275454487 158.0
51.280378343 153.0
51.285302199 147.0
51.290226055 171.0
51.295149911 158.0
51.300073767 145.0
51.304997623 150.0
51.309921479 163.0
51.314845335 167.0
51.319769191 153.0
51.324693047 160.0
51.329616903 163.0
51.334540759 167.0
51.339464615 165.0
51.344388471 191.0
51.349312327 154.0
51.354236183 174.0
51.359160039 154.0
51.364083895 169.0
51.369007751 162.0
51.373931607 163.0
51.378855463 178.0
51.383779319 168.0
51.388703175 185.0
51.393627031 162.0
51.398550887 179.0
51.403474743 180.0
51.408398599 151.0
51.413322455 168.0
51.418246311 173.0
51.423170167 181.0
51.428094023 162.0
51.433017879 166.0
51.437941735 187.0
51.442865591 176.0
51.447789447 188.0
51.452713303 195.0
51.457637159 191.0
51.462561015 213.0
51.467484871 163.0
51.472408727 175.0
51.477332583 159.0
51.482256439 189.0
51.487180295 168.0
51.492104151 179.0
51.497028007 192.0
51.501951863 197.0
51.506875719 184.0
51.511799575 201.0
51.516723431 197.0
51.521647287 200.0
51.526571143 193.0
51.531494999 194.0
51.536418855 196.0
51.541342711 188.0
51.546266567 190.0
51.551190423 193.0
51.556114279 188.0
51.561038135 210.0
51.565961991 198.0
51.570885847 180.0
51.575809703 190.0
51.580733559 200.0
51.585657415 273.0
51.590581271 259.0
51.595505127 191.0
51.600428983 217.0
51.605352839 205.0
51.610276695 211.0
51.615200551 195.0
51.620124407 265.0
51.625048263 267.0
51.629972119 269.0
51.634895975 219.0
51.639819831 213.0
51.644743687 265.0
51.649667543 264.0
51.654591399 283.0
51.659515255 263.0
51.664439111 268.0
51.669362967 271.0
51.674286823 272.0
51.679210679 265.0
51.684134535 286.0
51.689058391 277.0
51.693982247 293.0
51.698906103 286.0
51.703829959 295.0
51.708753815 279.0
51.713677671 296.0
51.718601527 278.0
51.723525383 283.0
51.728449239 334.0
51.733373095 278.0
51.738296951 299.0
51.743220807 267.0
51.748144663 280.0
51.753068520 318.0
51.757992376 312.0
51.762916232 290.0
51.767840088 295.0
51.772763944 340.0
51.777687800 349.0
51.782611656 306.0
51.787535512 308.0
51.792459368 317.0
51.797383224 347.0
51.802307080 288.0
51.807230936 352.0
51.812154792 350.0
51.817078648 288.0
51.822002504 302.0
51.826926360 328.0
51.831850216 346.0
51.836774072 326.0
51.841697928 354.0
51.846621784 364.0
51.851545640 341.0
51.856469496 374.0
51.861393352 342.0
51.866317208 368.0
51.871241064 348.0
51.876164920 363.0
51.881088776 353.0
51.886012632 376.0
51.890936488 361.0
51.895860344 399.0
51.900784200 359.0
51.905708056 362.0
51.910631912 363.0
51.915555768 377.0
51.920479624 391.0
51.925403480 390.0
51.930327336 384.0
51.935251192 413.0
51.940175048 415.0
51.945098904 386.0
51.950022760 360.0
51.954946616 419.0
51.959870472 431.0
51.964794328 438.0
51.969718184 432.0
51.974642040 445.0
51.979565896 383.0
51.984489752 427.0
51.989413608 452.0
51.994337464 459.0
51.999261320 464.0
52.004185176 456.0
52.009109032 446.0
52.014032888 492.0
52.018956744 472.0
52.023880600 497.0
52.028804456 472.0
52.033728312 526.0
52.038652168 500.0
52.043576024 520.0
52.048499880 534.0
52.053423736 488.0
52.058347592 533.0
52.063271448 518.0
52.068195304 611.0
52.073119160 609.0
52.078043016 568.0
52.082966872 614.0
52.087890728 589.0
52.092814584 616.0
52.097738440 610.0
52.102662296 631.0
52.107586152 678.0
52.112510008 722.0
52.117433864 725.0
52.122357720 677.0
52.127281576 688.0
52.132205432 733.0
52.137129288 734.0
52.142053144 743.0
52.146977000 823.0
52.151900856 769.0
52.156824712 854.0
52.161748568 790.0
52.166672424 913.0
52.171596280 936.0
52.176520136 923.0
52.181443992 937.0
52.186367848 1044.0
52.191291704 1176.0
52.196215560 1216.0
52.201139416 1241.0
52.206063272 1377.0
52.210987128 1484.0
52.215910984 1578.0
52.220834840 1702.0
52.225758696 1852.0
52.230682552 1880.0
52.235606408 2092.0
52.240530264 2189.0
52.245454120 2323.0
52.250377977 2248.0
52.255301833 2274.0
52.260225689 2340.0
52.265149545 2348.0
52.270073401 2373.0
52.274997257 2493.0
52.279921113 2395.0
52.284844969 2375.0
52.289768825 2448.0
52.294692681 2331.0
52.299616537 2332.0
52.304540393 2266.0
52.309464249 2236.0
52.314388105 2238.0
52.319311961 2279.0
52.324235817 2215.0
52.329159673 2261.0
52.334083529 2327.0
52.339007385 2438.0
52.343931241 2453.0
52.348855097 2552.0
52.353778953 2626.0
52.358702809 2840.0
52.363626665 2934.0
52.368550521 3241.0
52.373474377 3273.0
52.378398233 3535.0
52.383322089 3877.0
52.388245945 4174.0
52.393169801 4627.0
52.398093657 5030.0
52.403017513 5531.0
52.407941369 6092.0
52.412865225 6900.0
52.417789081 7633.0
52.422712937 8506.0
52.427636793 9796.0
52.432560649 11268.0
52.437484505 13175.0
52.442408361 15461.0
52.447332217 18995.0
52.452256073 23542.0
52.457179929 29979.0
52.462103785 39482.0
52.467027641 55645.0
52.471951497 81201.0
52.476875353 123607.0
52.481799209 178333.0
52.486723065 235212.0
52.491646921 272219.0
52.496570777 286996.0
52.501494633 282879.0
52.506418489 257353.0
52.511342345 209545.0
52.516266201 155821.0
52.521190057 111820.0
52.526113913 78411.0
52.531037769 57776.0
52.535961625 42468.0
52.540885481 32808.0
52.545809337 26014.0
52.550733193 20935.0
52.555657049 17646.0
52.560580905 15706.0
52.565504761 14247.0
52.570428617 13460.0
52.575352473 13098.0
52.580276329 13545.0
52.585200185 14230.0
52.590124041 15784.0
52.595047897 18612.0
52.599971753 22345.0
52.604895609 28977.0
52.609819465 38900.0
52.614743321 55230.0
52.619667177 75665.0
52.624591033 101382.0
52.629514889 121523.0
52.634438745 135189.0
52.639362601 138481.0
52.644286457 132479.0
52.649210313 116819.0
52.654134169 93719.0
52.659058025 72116.0
52.663981881 51891.0
52.668905737 37788.0
52.673829593 27910.0
52.678753449 21189.0
52.683677305 16405.0
52.688601161 13053.0
52.693525017 10634.0
52.698448873 8857.0
52.703372729 7516.0
52.708296585 6656.0
52.713220441 5700.0
52.718144297 5155.0
52.723068153 4553.0
52.727992009 4232.0
52.732915865 3904.0
52.737839721 3677.0
52.742763577 3302.0
52.747687433 3252.0
52.752611290 2900.0
52.757535146 2792.0
52.762459002 2595.0
52.767382858 2628.0
52.772306714 2276.0
52.777230570 2229.0
52.782154426 2174.0
52.787078282 1961.0
52.792002138 2015.0
52.796925994 1973.0
52.801849850 1862.0
52.806773706 1698.0
52.811697562 1664.0
52.816621418 1620.0
52.821545274 1546.0
52.826469130 1418.0
52.831392986 1418.0
52.836316842 1386.0
52.841240698 1379.0
52.846164554 1262.0
52.851088410 1300.0
52.856012266 1236.0
52.860936122 1230.0
52.865859978 1135.0
52.870783834 1109.0
52.875707690 1062.0
52.880631546 1053.0
52.885555402 1060.0
52.890479258 1047.0
52.895403114 942.0
52.900326970 954.0
52.905250826 954.0
52.910174682 975.0
52.915098538 897.0
52.920022394 936.0
52.924946250 819.0
52.929870106 791.0
52.934793962 804.0
52.939717818 790.0
52.944641674 793.0
52.949565530 810.0
52.954489386 739.0
52.959413242 747.0
52.964337098 711.0
52.969260954 686.0
52.974184810 639.0
52.979108666 650.0
52.984032522 684.0
52.988956378 613.0
52.993880234 654.0
52.998804090 644.0
53.003727946 618.0
53.008651802 583.0
53.013575658 597.0
53.018499514 552.0
53.023423370 577.0
53.028347226 597.0
53.033271082 584.0
53.038194938 600.0
53.043118794 528.0
53.048042650 553.0
53.052966506 531.0
53.057890362 515.0
53.062814218 512.0
53.067738074 485.0
53.072661930 500.0
53.077585786 491.0
53.082509642 472.0
53.087433498 434.0
53.092357354 458.0
53.097281210 426.0
53.102205066 393.0
53.107128922 434.0
53.112052778 422.0
53.116976634 444.0
53.121900490 407.0
53.126824346 446.0
53.131748202 346.0
53.136672058 405.0
53.141595914 390.0
53.146519770 412.0
53.151443626 405.0
53.156367482 360.0
53.161291338 411.0
53.166215194 383.0
53.171139050 392.0
53.176062906 346.0
53.180986762 376.0
53.185910618 389.0
53.190834474 367.0
53.195758330 328.0
53.200682186 344.0
53.205606042 343.0
53.210529898 295.0
53.215453754 328.0
53.220377610 318.0
53.225301466 336.0
53.230225322 315.0
53.235149178 306.0
53.240073034 334.0
53.244996890 326.0
53.249920747 351.0
53.254844603 215.0
53.259768459 318.0
53.264692315 288.0
53.269616171 326.0
53.274540027 288.0
53.279463883 288.0
53.284387739 262.0
53.289311595 321.0
53.294235451 263.0
53.299159307 275.0
53.304083163 255.0
53.309007019 271.0
53.313930875 201.0
53.318854731 268.0
53.323778587 211.0
53.328702443 258.0
53.333626299 262.0
53.338550155 265.0
53.343474011 213.0
53.348397867 200.0
53.353321723 206.0
53.358245579 258.0
53.363169435 209.0
53.368093291 182.0
53.373017147 211.0
53.377941003 210.0
53.382864859 183.0
53.387788715 205.0
53.392712571 189.0
53.397636427 188.0
53.402560283 197.0
53.407484139 175.0
53.412407995 170.0
53.417331851 170.0
53.422255707 206.0
53.427179563 169.0
53.432103419 192.0
53.437027275 170.0
53.441951131 199.0
53.446874987 186.0
53.451798843 174.0
53.456722699 165.0
53.461646555 172.0
53.466570411 166.0
53.471494267 165.0
53.476418123 177.0
53.481341979 173.0
53.486265835 155.0
53.491189691 164.0
53.496113547 170.0
53.501037403 167.0
53.505961259 158.0
53.510885115 167.0
53.515808971 174.0
53.520732827 166.0
53.525656683 150.0
53.530580539 161.0
53.535504395 150.0
53.540428251 140.0
53.545352107 131.0
53.550275963 135.0
53.555199819 150.0
53.560123675 144.0
53.565047531 130.0
53.569971387 157.0
53.574895243 121.0
53.579819099 141.0
53.584742955 143.0
53.589666811 119.0
53.594590667 118.0
53.599514523 128.0
53.604438379 120.0
53.609362235 127.0
53.614286091 147.0
53.619209947 162.0
53.624133803 117.0
53.629057659 135.0
53.633981515 132.0
53.638905371 132.0
53.643829227 124.0
53.648753083 126.0
53.653676939 123.0
53.658600795 140.0
53.663524651 128.0
53.668448507 119.0
53.673372363 133.0
53.678296219 123.0
53.683220075 115.0
53.688143931 115.0
53.693067787 123.0
53.697991643 131.0
53.702915499 124.0
53.707839355 124.0
53.712763211 121.0
53.717687067 86.0
53.722610923 112.0
53.727534779 107.0
53.732458635 112.0
53.737382491 112.0
53.742306347 91.0
53.747230203 108.0
53.752154060 109.0
53.757077916 103.0
53.762001772 114.0
53.766925628 95.0
53.771849484 122.0
53.776773340 101.0
53.781697196 109.0
53.786621052 115.0
53.791544908 106.0
53.796468764 111.0
53.801392620 92.0
53.806316476 107.0
53.811240332 113.0
53.816164188 82.0
53.821088044 93.0
53.826011900 100.0
53.830935756 93.0
53.835859612 97.0
53.840783468 81.0
53.845707324 101.0
53.850631180 99.0
53.855555036 94.0
53.860478892 106.0
53.865402748 102.0
53.870326604 98.0
53.875250460 98.0
53.880174316 108.0
53.885098172 84.0
53.890022028 97.0
53.894945884 92.0
53.899869740 100.0
53.904793596 80.0
53.909717452 81.0
53.914641308 90.0
53.919565164 76.0
53.924489020 103.0
53.929412876 95.0
53.934336732 117.0
53.939260588 93.0
53.944184444 82.0
53.949108300 73.0
53.954032156 89.0
53.958956012 76.0
53.963879868 87.0
53.968803724 94.0
53.973727580 94.0
53.978651436 78.0
53.983575292 87.0
53.988499148 94.0
53.993423004 100.0
53.998346860 84.0
54.003270716 97.0
54.008194572 85.0
54.013118428 73.0
54.018042284 72.0
54.022966140 71.0
54.027889996 87.0
54.032813852 78.0
54.037737708 85.0
54.042661564 71.0
54.047585420 77.0
54.052509276 76.0
54.057433132 89.0
54.062356988 73.0
54.067280844 73.0
54.072204700 80.0
54.077128556 77.0
54.082052412 83.0
54.086976268 76.0
54.091900124 84.0
54.096823980 87.0
54.101747836 101.0
54.106671692 86.0
54.111595548 81.0
54.116519404 70.0
54.121443260 94.0
54.126367116 95.0
54.131290972 73.0
54.136214828 76.0
54.141138684 75.0
54.146062540 84.0
54.150986396 70.0
54.155910252 73.0
54.160834108 70.0
54.165757964 79.0
54.170681820 78.0
54.175605676 81.0
54.180529532 72.0
54.185453388 72.0
54.190377244 97.0
54.195301100 62.0
54.200224956 73.0
54.205148812 70.0
54.210072668 77.0
54.214996524 78.0
54.219920380 86.0
54.224844236 75.0
54.229768092 75.0
54.234691948 88.0
54.239615804 81.0
54.244539660 77.0
54.249463517 69.0
54.254387373 70.0
54.259311229 70.0
54.264235085 70.0
54.269158941 63.0
54.274082797 68.0
54.279006653 73.0
54.283930509 69.0
54.288854365 79.0
54.293778221 74.0
54.298702077 96.0
54.303625933 87.0
54.308549789 70.0
54.313473645 81.0
54.318397501 79.0
54.323321357 76.0
54.328245213 82.0
54.333169069 76.0
54.338092925 72.0
54.343016781 70.0
54.347940637 69.0
54.352864493 85.0
54.357788349 60.0
54.362712205 68.0
54.367636061 79.0
54.372559917 61.0
54.377483773 69.0
54.382407629 73.0
54.387331485 79.0
54.392255341 62.0
54.397179197 72.0
54.402103053 74.0
54.407026909 70.0
54.411950765 76.0
54.416874621 77.0
54.421798477 60.0
54.426722333 77.0
54.431646189 64.0
54.436570045 69.0
54.441493901 61.0
54.446417757 65.0
54.451341613 73.0
54.456265469 65.0
54.461189325 68.0
54.466113181 58.0
54.471037037 69.0
54.475960893 68.0
54.480884749 71.0
54.485808605 61.0
54.490732461 70.0
54.495656317 70.0
54.500580173 59.0
54.505504029 75.0
54.510427885 66.0
54.515351741 65.0
54.520275597 56.0
54.525199453 62.0
54.530123309 86.0
54.535047165 63.0
54.539971021 72.0
54.544894877 67.0
54.549818733 58.0
54.554742589 60.0
54.559666445 83.0
54.564590301 67.0
54.569514157 72.0
54.574438013 65.0
54.579361869 70.0
54.584285725 83.0
54.589209581 66.0
54.594133437 72.0
54.599057293 80.0
54.603981149 76.0
54.608905005 61.0
54.613828861 63.0
54.618752717 63.0
54.623676573 58.0
54.628600429 87.0
54.633524285 57.0
54.638448141 69.0
54.643371997 74.0
54.648295853 55.0
54.653219709 59.0
54.658143565 77.0
54.663067421 70.0
54.667991277 62.0
54.672915133 71.0
54.677838989 66.0
54.682762845 66.0
54.687686701 69.0
54.692610557 64.0
54.697534413 71.0
54.702458269 60.0
54.707382125 64.0
54.712305981 84.0
54.717229837 79.0
54.722153693 74.0
54.727077549 82.0
54.732001405 71.0
54.736925261 72.0
54.741849117 70.0
54.746772973 60.0
54.751696830 67.0
54.756620686 57.0
54.761544542 66.0
54.766468398 83.0
54.771392254 70.0
54.776316110 62.0
54.781239966 66.0
54.786163822 73.0
54.791087678 58.0
54.796011534 68.0
54.800935390 65.0
54.805859246 70.0
54.810783102 65.0
54.815706958 72.0
54.820630814 73.0
54.825554670 73.0
54.830478526 70.0
54.835402382 76.0
54.840326238 67.0
54.845250094 70.0
54.850173950 66.0
54.855097806 62.0
54.860021662 49.0
54.864945518 61.0
54.869869374 66.0
54.874793230 57.0
54.879717086 65.0
54.884640942 76.0
54.889564798 62.0
54.894488654 70.0
54.899412510 59.0
54.904336366 60.0
54.909260222 71.0
54.914184078 66.0
54.919107934 64.0
54.924031790 59.0
54.928955646 66.0
54.933879502 71.0
54.938803358 63.0
54.943727214 59.0
54.948651070 66.0
54.953574926 61.0
54.958498782 47.0
54.963422638 58.0
54.968346494 56.0
54.973270350 58.0
54.978194206 69.0
54.983118062 73.0
54.988041918 76.0
54.992965774 66.0
54.997889630 57.0
