45.002461930 99.0
45.007385786 94.0
45.012309642 102.0
45.017233498 95.0
45.022157354 97.0
45.027081210 105.0
45.032005066 99.0
45.036928922 119.0
45.041852778 98.0
45.046776634 91.0
45.051700490 106.0
45.056624346 85.0
45.061548202 99.0
45.066472058 97.0
45.071395914 86.0
45.076319770 90.0
45.081243626 108.0
45.086167482 93.0
45.091091338 87.0
45.096015194 103.0
45.100939050 107.0
45.105862906 124.0
45.110786762 101.0
45.115710618 95.0
45.120634474 105.0
45.125558330 113.0
45.130482186 85.0
45.135406042 98.0
45.140329898 85.0
45.145253754 105.0
45.150177610 100.0
45.155101466 108.0
45.160025322 111.0
45.164949178 110.0
45.169873034 85.0
45.174796890 103.0
45.179720746 107.0
45.184644602 92.0
45.189568458 92.0
45.194492314 101.0
45.199416170 97.0
45.204340026 119.0
45.209263882 77.0
45.214187738 105.0
45.219111594 119.0
45.224035450 107.0
45.228959306 115.0
45.233883162 92.0
45.238807018 94.0
45.243730874 117.0
45.248654730 98.0
45.253578587 94.0
45.258502443 87.0
45.263426299 93.0
45.268350155 96.0
45.273274011 107.0
45.278197867 121.0
45.283121723 106.0
45.288045579 111.0
45.292969435 117.0
45.297893291 97.0
45.302817147 113.0
45.307741003 111.0
45.312664859 108.0
45.317588715 93.0
45.322512571 100.0
45.327436427 93.0
45.332360283 111.0
45.337284139 107.0
45.342207995 87.0
45.347131851 83.0
45.352055707 87.0
45.356979563 96.0
45.361903419 93.0
45.366827275 102.0
45.371751131 101.0
45.376674987 120.0
45.381598843 102.0
45.386522699 105.0
45.391446555 95.0
45.396370411 106.0
45.401294267 106.0
45.406218123 97.0
45.411141979 113.0
45.416065835 87.0
45.420989691 97.0
45.425913547 97.0
45.430837403 81.0
45.435761259 112.0
45.440685115 92.0
45.445608971 104.0
45.450532827 115.0
45.455456683 112.0
45.460380539 87.0
45.465304395 95.0
45.470228251 97.0
45.475152107 112.0
45.480075963 101.0
45.484999819 97.0
45.489923675 120.0
45.494847531 95.0
45.499771387 96.0
45.504695243 93.0
45.509619099 94.0
45.514542955 103.0
45.519466811 95.0
45.524390667 103.0
45.529314523 98.0
45.534238379 96.0
45.539162235 103.0
45.544086091 98.0
45.549009947 93.0
45.553933803 87.0
45.558857659 104.0
45.563781515 90.0
45.568705371 84.0
45.573629227 94.0
45.578553083 91.0
45.583476939 103.0
45.588400795 100.0
45.593324651 81.0
45.598248507 82.0
45.603172363 100.0
45.608096219 105.0
45.613020075 108.0
45.617943931 110.0
45.622867787 87.0
45.627791643 94.0
45.632715499 118.0
45.637639355 107.0
45.642563211 90.0
45.647487067 107.0
45.652410923 86.0
45.657334779 132.0
45.662258635 123.0
45.667182491 95.0
45.672106347 94.0
45.677030203 101.0
45.681954059 93.0
45.686877915 91.0
45.691801771 97.0
45.696725627 93.0
45.701649483 127.0
45.706573339 112.0
45.711497195 104.0
45.716421051 83.0
45.721344907 95.0
45.726268763 95.0
45.731192619 95.0
45.736116475 80.0
45.741040331 112.0
45.745964187 113.0
45.750888043 97.0
45.755811900 107.0
45.760735756 94.0
45.765659612 96.0
45.770583468 105.0
45.775507324 87.0
45.780431180 105.0
45.785355036 93.0
45.790278892 97.0
45.795202748 94.0
45.800126604 93.0
45.805050460 89.0
45.809974316 111.0
45.814898172 95.0
45.819822028 103.0
45.824745884 103.0
45.829669740 95.0
45.834593596 116.0
45.839517452 96.0
45.844441308 112.0
45.849365164 110.0
45.854289020 105.0
45.859212876 97.0
45.864136732 104.0
45.869060588 87.0
45.873984444 106.0
45.878908300 89.0
45.883832156 114.0
45.888756012 114.0
45.893679868 103.0
45.898603724 103.0
45.903527580 103.0
45.908451436 110.0
45.913375292 104.0
45.918299148 92.0
45.923223004 107.0
45.928146860 98.0
45.933070716 82.0
45.937994572 93.0
45.942918428 85.0
45.947842284 94.0
45.952766140 101.0
45.957689996 94.0
45.962613852 108.0
45.967537708 102.0
45.972461564 103.0
45.977385420 105.0
45.982309276 74.0
45.987233132 97.0
45.992156988 97.0
45.997080844 109.0
46.002004700 117.0
46.006928556 94.0
46.011852412 106.0
46.016776268 99.0
46.021700124 105.0
46.026623980 93.0
46.031547836 104.0
46.036471692 111.0
46.041395548 109.0
46.046319404 111.0
46.051243260 119.0
46.056167116 90.0
46.061090972 111.0
46.066014828 105.0
46.070938684 107.0
46.075862540 87.0
46.080786396 100.0
46.085710252 101.0
46.090634108 105.0
46.095557964 91.0
46.100481820 99.0
46.105405676 108.0
46.110329532 93.0
46.115253388 85.0
46.120177244 122.0
46.125101100 92.0
46.130024956 109.0
46.134948812 113.0
46.139872668 109.0
46.144796524 92.0
46.149720380 101.0
46.154644236 77.0
46.159568092 109.0
46.164491948 102.0
46.169415804 104.0
46.174339660 86.0
46.179263516 101.0
46.184187372 122.0
46.189111228 118.0
46.194035084 100.0
46.198958940 91.0
46.203882796 99.0
46.208806652 116.0
46.213730508 91.0
46.218654364 104.0
46.223578220 101.0
46.228502076 100.0
46.233425932 108.0
46.238349788 76.0
46.243273644 106.0
46.248197500 116.0
46.253121357 100.0
46.258045213 92.0
46.262969069 96.0
46.267892925 101.0
46.272816781 88.0
46.277740637 95.0
46.282664493 87.0
46.287588349 113.0
46.292512205 102.0
46.297436061 95.0
46.302359917 91.0
46.307283773 99.0
46.312207629 86.0
46.317131485 131.0
46.322055341 108.0
46.326979197 107.0
46.331903053 100.0
46.336826909 96.0
46.341750765 90.0
46.346674621 108.0
46.351598477 106.0
46.356522333 90.0
46.361446189 102.0
46.366370045 87.0
46.371293901 117.0
46.376217757 90.0
46.381141613 95.0
46.386065469 110.0
46.390989325 90.0
46.395913181 105.0
46.400837037 87.0
46.405760893 92.0
46.410684749 94.0
46.415608605 107.0
46.420532461 120.0
46.425456317 110.0
46.430380173 98.0
46.435304029 100.0
46.440227885 106.0
46.445151741 95.0
46.450075597 94.0
46.454999453 94.0
46.459923309 100.0
46.464847165 114.0
46.469771021 86.0
46.474694877 106.0
46.479618733 96.0
46.484542589 95.0
46.489466445 93.0
46.494390301 107.0
46.499314157 87.0
46.504238013 104.0
46.509161869 115.0
46.514085725 96.0
46.519009581 103.0
46.523933437 108.0
46.528857293 85.0
46.533781149 131.0
46.538705005 107.0
46.543628861 100.0
46.548552717 96.0
46.553476573 89.0
46.558400429 116.0
46.563324285 104.0
46.568248141 115.0
46.573171997 99.0
46.578095853 100.0
46.583019709 104.0
46.587943565 96.0
46.592867421 96.0
46.597791277 87.0
46.602715133 96.0
46.607638989 87.0
46.612562845 114.0
46.617486701 105.0
46.622410557 100.0
46.627334413 113.0
46.632258269 104.0
46.637182125 108.0
46.642105981 108.0
46.647029837 114.0
46.651953693 111.0
46.656877549 120.0
46.661801405 104.0
46.666725261 120.0
46.671649117 127.0
46.676572973 118.0
46.681496829 106.0
46.686420685 125.0
46.691344541 106.0
46.696268397 91.0
46.701192253 120.0
46.706116109 118.0
46.711039965 125.0
46.715963821 109.0
46.720887677 100.0
46.725811533 129.0
46.730735389 116.0
46.735659245 120.0
46.740583101 118.0
46.745506957 114.0
46.750430813 109.0
46.755354670 103.0
46.760278526 125.0
46.765202382 106.0
46.770126238 101.0
46.775050094 123.0
46.779973950 123.0
46.784897806 92.0
46.789821662 112.0
46.794745518 121.0
46.799669374 116.0
46.804593230 111.0
46.809517086 109.0
46.814440942 110.0
46.819364798 118.0
46.824288654 99.0
46.829212510 100.0
46.834136366 100.0
46.839060222 116.0
46.843984078 99.0
46.848907934 122.0
46.853831790 113.0
46.858755646 117.0
46.863679502 122.0
46.868603358 103.0
46.873527214 104.0
46.878451070 98.0
46.883374926 100.0
46.888298782 117.0
46.893222638 118.0
46.898146494 109.0
46.903070350 115.0
46.907994206 116.0
46.912918062 103.0
46.917841918 108.0
46.922765774 127.0
46.927689630 117.0
46.932613486 113.0
46.937537342 150.0
46.942461198 116.0
46.947385054 131.0
46.952308910 108.0
46.957232766 139.0
46.962156622 101.0
46.967080478 107.0
46.972004334 125.0
46.976928190 113.0
46.981852046 113.0
46.986775902 140.0
46.991699758 133.0
46.996623614 150.0
47.001547470 156.0
47.006471326 166.0
47.011395182 159.0
47.016319038 169.0
47.021242894 157.0
47.026166750 203.0
47.031090606 186.0
47.036014462 214.0
47.040938318 276.0
47.045862174 285.0
47.050786030 351.0
47.055709886 415.0
47.060633742 460.0
47.065557598 542.0
47.070481454 687.0
47.075405310 901.0
47.080329166 1027.0
47.085253022 1251.0
47.090176878 1432.0
47.095100734 1530.0
47.100024590 1655.0
47.104948446 1760.0
47.109872302 1756.0
47.114796158 1756.0
47.119720014 1683.0
47.124643870 1511.0
47.129567726 1479.0
47.134491582 1264.0
47.139415438 1212.0
47.144339294 998.0
47.149263150 793.0
47.154187006 706.0
47.159110862 594.0
47.164034718 513.0
47.168958574 426.0
47.173882430 437.0
47.178806286 359.0
47.183730142 330.0
47.188653998 305.0
47.193577854 277.0
47.198501710 232.0
47.203425566 219.0
47.208349422 235.0
47.213273278 211.0
47.218197134 213.0
47.223120990 172.0
47.228044846 168.0
47.232968702 171.0
47.237892558 140.0
47.242816414 148.0
47.247740270 162.0
47.252664127 141.0
47.257587983 150.0
47.262511839 156.0
47.267435695 155.0
47.272359551 141.0
47.277283407 147.0
47.282207263 153.0
47.287131119 124.0
47.292054975 118.0
47.296978831 134.0
47.301902687 150.0
47.306826543 131.0
47.311750399 138.0
47.316674255 128.0
47.321598111 154.0
47.326521967 159.0
47.331445823 133.0
47.336369679 139.0
47.341293535 121.0
47.346217391 137.0
47.351141247 121.0
47.356065103 128.0
47.360988959 128.0
47.365912815 107.0
47.370836671 132.0
47.375760527 120.0
47.380684383 126.0
47.385608239 137.0
47.390532095 128.0
47.395455951 126.0
47.400379807 132.0
47.405303663 121.0
47.410227519 130.0
47.415151375 112.0
47.420075231 133.0
47.424999087 124.0
47.429922943 122.0
47.434846799 118.0
47.439770655 126.0
47.444694511 134.0
47.449618367 140.0
47.454542223 108.0
47.459466079 133.0
47.464389935 104.0
47.469313791 128.0
47.474237647 132.0
47.479161503 112.0
47.484085359 121.0
47.489009215 126.0
47.493933071 111.0
47.498856927 117.0
47.503780783 110.0
47.508704639 134.0
47.513628495 109.0
47.518552351 107.0
47.523476207 107.0
47.528400063 106.0
47.533323919 112.0
47.538247775 101.0
47.543171631 118.0
47.548095487 138.0
47.553019343 113.0
47.557943199 127.0
47.562867055 105.0
47.567790911 117.0
47.572714767 118.0
47.577638623 120.0
47.582562479 105.0
47.587486335 104.0
47.592410191 102.0
47.597334047 133.0
47.602257903 138.0
47.607181759 122.0
47.612105615 99.0
47.617029471 114.0
47.621953327 117.0
47.626877183 120.0
47.631801039 118.0
47.636724895 113.0
47.641648751 124.0
47.646572607 111.0
47.651496463 103.0
47.656420319 121.0
47.661344175 96.0
47.666268031 125.0
47.671191887 106.0
47.676115743 118.0
47.681039599 106.0
47.685963455 85.0
47.690887311 116.0
47.695811167 111.0
47.700735023 102.0
47.705658879 113.0
47.710582735 108.0
47.715506591 113.0
47.720430447 118.0
47.725354303 130.0
47.730278159 113.0
47.735202015 145.0
47.740125871 110.0
47.745049727 103.0
47.749973583 121.0
47.754897440 108.0
47.759821296 113.0
47.764745152 126.0
47.769669008 98.0
47.774592864 110.0
47.779516720 116.0
47.784440576 96.0
47.789364432 116.0
47.794288288 120.0
47.799212144 114.0
47.804136000 94.0
47.809059856 113.0
47.813983712 128.0
47.818907568 99.0
47.823831424 103.0
47.828755280 120.0
47.833679136 98.0
47.838602992 132.0
47.843526848 109.0
47.848450704 111.0
47.853374560 124.0
47.858298416 116.0
47.863222272 139.0
47.868146128 117.0
47.873069984 116.0
47.877993840 112.0
47.882917696 111.0
47.887841552 113.0
47.892765408 115.0
47.897689264 124.0
47.902613120 104.0
47.907536976 105.0
47.912460832 124.0
47.917384688 104.0
47.922308544 109.0
47.927232400 133.0
47.932156256 107.0
47.937080112 101.0
47.942003968 132.0
47.946927824 133.0
47.951851680 134.0
47.956775536 134.0
47.961699392 106.0
47.966623248 137.0
47.971547104 125.0
47.976470960 114.0
47.981394816 111.0
47.986318672 130.0
47.991242528 118.0
47.996166384 110.0
48.001090240 132.0
48.006014096 109.0
48.010937952 119.0
48.015861808 118.0
48.020785664 113.0
48.025709520 109.0
48.030633376 107.0
48.035557232 123.0
48.040481088 121.0
48.045404944 127.0
48.050328800 121.0
48.055252656 116.0
48.060176512 114.0
48.065100368 131.0
48.070024224 118.0
48.074948080 131.0
48.079871936 123.0
48.084795792 121.0
48.089719648 127.0
48.094643504 124.0
48.099567360 114.0
48.104491216 108.0
48.109415072 125.0
48.114338928 127.0
48.119262784 112.0
48.124186640 121.0
48.129110496 103.0
48.134034352 120.0
48.138958208 127.0
48.143882064 123.0
48.148805920 113.0
48.153729776 118.0
48.158653632 91.0
48.163577488 121.0
48.168501344 123.0
48.173425200 117.0
48.178349056 118.0
48.183272912 125.0
48.188196768 110.0
48.193120624 124.0
48.198044480 123.0
48.202968336 109.0
48.207892192 116.0
48.212816048 95.0
48.217739904 131.0
48.222663760 107.0
48.227587616 137.0
48.232511472 119.0
48.237435328 134.0
48.242359184 121.0
48.247283040 113.0
48.252206897 129.0
48.257130753 119.0
48.262054609 106.0
48.266978465 130.0
48.271902321 119.0
48.276826177 122.0
48.281750033 129.0
48.286673889 119.0
48.291597745 114.0
48.296521601 105.0
48.301445457 114.0
48.306369313 107.0
48.311293169 122.0
48.316217025 143.0
48.321140881 115.0
48.326064737 123.0
48.330988593 114.0
48.335912449 125.0
48.340836305 112.0
48.345760161 114.0
48.350684017 132.0
48.355607873 130.0
48.360531729 115.0
48.365455585 95.0
48.370379441 113.0
48.375303297 102.0
48.380227153 126.0
48.385151009 117.0
48.390074865 134.0
48.394998721 146.0
48.399922577 134.0
48.404846433 122.0
48.409770289 122.0
48.414694145 117.0
48.419618001 114.0
48.424541857 122.0
48.429465713 122.0
48.434389569 131.0
48.439313425 105.0
48.444237281 140.0
48.449161137 119.0
48.454084993 130.0
48.459008849 124.0
48.463932705 129.0
48.468856561 131.0
48.473780417 134.0
48.478704273 114.0
48.483628129 109.0
48.488551985 124.0
48.493475841 162.0
48.498399697 118.0
48.503323553 111.0
48.508247409 122.0
48.513171265 131.0
48.518095121 158.0
48.523018977 161.0
48.527942833 119.0
48.532866689 132.0
48.537790545 126.0
48.542714401 117.0
48.547638257 124.0
48.552562113 120.0
48.557485969 125.0
48.562409825 125.0
48.567333681 132.0
48.572257537 145.0
48.577181393 127.0
48.582105249 115.0
48.587029105 129.0
48.591952961 152.0
48.596876817 123.0
48.601800673 125.0
48.606724529 125.0
48.611648385 128.0
48.616572241 119.0
48.621496097 126.0
48.626419953 123.0
48.631343809 122.0
48.636267665 128.0
48.641191521 122.0
48.646115377 127.0
48.651039233 119.0
48.655963089 144.0
48.660886945 125.0
48.665810801 120.0
48.670734657 127.0
48.675658513 102.0
48.680582369 121.0
48.685506225 115.0
48.690430081 120.0
48.695353937 127.0
48.700277793 119.0
48.705201649 119.0
48.710125505 98.0
48.715049361 114.0
48.719973217 123.0
48.724897073 155.0
48.729820929 131.0
48.734744785 133.0
48.739668641 114.0
48.744592497 124.0
48.749516353 124.0
48.754440210 129.0
48.759364066 129.0
48.764287922 136.0
48.769211778 144.0
48.774135634 123.0
48.779059490 127.0
48.783983346 116.0
48.788907202 111.0
48.793831058 127.0
48.798754914 135.0
48.803678770 138.0
48.808602626 123.0
48.813526482 131.0
48.818450338 141.0
48.823374194 139.0
48.828298050 133.0
48.833221906 151.0
48.838145762 139.0
48.843069618 147.0
48.847993474 133.0
48.852917330 138.0
48.857841186 150.0
48.862765042 127.0
48.867688898 144.0
48.872612754 148.0
48.877536610 158.0
48.882460466 133.0
48.887384322 124.0
48.892308178 148.0
48.897232034 132.0
48.902155890 143.0
48.907079746 147.0
48.912003602 149.0
48.916927458 130.0
48.921851314 158.0
48.926775170 151.0
48.931699026 129.0
48.936622882 120.0
48.941546738 142.0
48.946470594 133.0
48.951394450 134.0
48.956318306 148.0
48.961242162 142.0
48.966166018 164.0
48.971089874 145.0
48.976013730 161.0
48.980937586 140.0
48.985861442 178.0
48.990785298 130.0
48.995709154 136.0
49.000633010 159.0
49.005556866 154.0
49.010480722 162.0
49.015404578 141.0
49.020328434 162.0
49.025252290 157.0
49.030176146 142.0
49.035100002 153.0
49.040023858 156.0
49.044947714 153.0
49.049871570 150.0
49.054795426 161.0
49.059719282 135.0
49.064643138 141.0
49.069566994 152.0
49.074490850 157.0
49.079414706 154.0
49.084338562 169.0
49.089262418 125.0
49.094186274 148.0
49.099110130 176.0
49.104033986 159.0
49.108957842 166.0
49.113881698 147.0
49.118805554 143.0
49.123729410 180.0
49.128653266 170.0
49.133577122 170.0
49.138500978 168.0
49.143424834 164.0
49.148348690 150.0
49.153272546 158.0
49.158196402 186.0
49.163120258 159.0
49.168044114 202.0
49.172967970 196.0
49.177891826 159.0
49.182815682 194.0
49.187739538 186.0
49.192663394 198.0
49.197587250 173.0
49.202511106 180.0
49.207434962 170.0
49.212358818 184.0
49.217282674 175.0
49.222206530 164.0
49.227130386 187.0
49.232054242 207.0
49.236978098 164.0
49.241901954 187.0
49.246825810 174.0
49.251749667 199.0
49.256673523 173.0
49.261597379 195.0
49.266521235 193.0
49.271445091 194.0
49.276368947 203.0
49.281292803 197.0
49.286216659 191.0
49.291140515 186.0
49.296064371 198.0
49.300988227 183.0
49.305912083 216.0
49.310835939 215.0
49.315759795 211.0
49.320683651 224.0
49.325607507 221.0
49.330531363 237.0
49.335455219 216.0
49.340379075 197.0
49.345302931 243.0
49.350226787 212.0
49.355150643 210.0
49.360074499 194.0
49.364998355 225.0
49.369922211 201.0
49.374846067 223.0
49.379769923 231.0
49.384693779 230.0
49.389617635 236.0
49.394541491 248.0
49.399465347 215.0
49.404389203 224.0
49.409313059 269.0
49.414236915 274.0
49.419160771 248.0
49.424084627 267.0
49.429008483 267.0
49.433932339 283.0
49.438856195 257.0
49.443780051 286.0
49.448703907 305.0
49.453627763 274.0
49.458551619 270.0
49.463475475 291.0
49.468399331 290.0
49.473323187 332.0
49.478247043 309.0
49.483170899 290.0
49.488094755 322.0
49.493018611 324.0
49.497942467 300.0
49.502866323 319.0
49.507790179 331.0
49.512714035 324.0
49.517637891 331.0
49.522561747 362.0
49.527485603 315.0
49.532409459 371.0
49.537333315 344.0
49.542257171 352.0
49.547181027 386.0
49.552104883 370.0
49.557028739 359.0
49.561952595 380.0
49.566876451 367.0
49.571800307 411.0
49.576724163 391.0
49.581648019 441.0
49.586571875 416.0
49.591495731 418.0
49.596419587 440.0
49.601343443 446.0
49.606267299 451.0
49.611191155 449.0
49.616115011 457.0
49.621038867 449.0
49.625962723 473.0
49.630886579 425.0
49.635810435 470.0
49.640734291 484.0
49.645658147 476.0
49.650582003 483.0
49.655505859 495.0
49.660429715 482.0
49.665353571 516.0
49.670277427 486.0
49.675201283 538.0
49.680125139 486.0
49.685048995 521.0
49.689972851 514.0
49.694896707 542.0
49.699820563 534.0
49.704744419 487.0
49.709668275 570.0
49.714592131 538.0
49.719515987 497.0
49.724439843 589.0
49.729363699 567.0
49.734287555 570.0
49.739211411 521.0
49.744135267 562.0
49.749059123 561.0
49.753982980 549.0
49.758906836 564.0
49.763830692 552.0
49.768754548 584.0
49.773678404 575.0
49.778602260 573.0
49.783526116 531.0
49.788449972 537.0
49.793373828 574.0
49.798297684 554.0
49.803221540 582.0
49.808145396 555.0
49.813069252 563.0
49.817993108 547.0
49.822916964 498.0
49.827840820 536.0
49.832764676 543.0
49.837688532 554.0
49.842612388 554.0
49.847536244 527.0
49.852460100 550.0
49.857383956 505.0
49.862307812 530.0
49.867231668 535.0
49.872155524 462.0
49.877079380 549.0
49.882003236 498.0
49.886927092 546.0
49.891850948 548.0
49.896774804 501.0
49.901698660 491.0
49.906622516 489.0
49.911546372 450.0
49.916470228 502.0
49.921394084 528.0
49.926317940 479.0
49.931241796 505.0
49.936165652 483.0
49.941089508 501.0
49.946013364 452.0
49.950937220 494.0
49.955861076 480.0
49.960784932 431.0
49.965708788 449.0
49.970632644 444.0
49.975556500 420.0
49.980480356 429.0
49.985404212 431.0
49.990328068 404.0
49.995251924 469.0
50.000175780 442.0
50.005099636 414.0
50.010023492 428.0
50.014947348 406.0
50.019871204 418.0
50.024795060 404.0
50.029718916 390.0
50.034642772 364.0
50.039566628 422.0
50.044490484 373.0
50.049414340 407.0
50.054338196 371.0
50.059262052 341.0
50.064185908 388.0
50.069109764 373.0
50.074033620 369.0
50.078957476 353.0
50.083881332 380.0
50.088805188 364.0
50.093729044 317.0
50.098652900 337.0
50.103576756 333.0
50.108500612 369.0
50.113424468 322.0
50.118348324 297.0
50.123272180 399.0
50.128196036 354.0
50.133119892 337.0
50.138043748 376.0
50.142967604 365.0
50.147891460 355.0
50.152815316 354.0
50.157739172 321.0
50.162663028 359.0
50.167586884 305.0
50.172510740 306.0
50.177434596 292.0
50.182358452 300.0
50.187282308 296.0
50.192206164 312.0
50.197130020 288.0
50.202053876 279.0
50.206977732 300.0
50.211901588 311.0
50.216825444 278.0
50.221749300 291.0
50.226673156 227.0
50.231597012 281.0
50.236520868 270.0
50.241444724 273.0
50.246368580 259.0
50.251292437 282.0
50.256216293 234.0
50.261140149 282.0
50.266064005 262.0
50.270987861 208.0
50.275911717 243.0
50.280835573 212.0
50.285759429 220.0
50.290683285 255.0
50.295607141 244.0
50.300530997 239.0
50.305454853 227.0
50.310378709 241.0
50.315302565 256.0
50.320226421 201.0
50.325150277 215.0
50.330074133 216.0
50.334997989 255.0
50.339921845 230.0
50.344845701 212.0
50.349769557 214.0
50.354693413 215.0
50.359617269 227.0
50.364541125 232.0
50.369464981 211.0
50.374388837 212.0
50.379312693 195.0
50.384236549 227.0
50.389160405 215.0
50.394084261 201.0
50.399008117 214.0
50.403931973 197.0
50.408855829 219.0
50.413779685 240.0
50.418703541 206.0
50.423627397 231.0
50.428551253 200.0
50.433475109 233.0
50.438398965 203.0
50.443322821 205.0
50.448246677 192.0
50.453170533 190.0
50.458094389 175.0
50.463018245 179.0
50.467942101 210.0
50.472865957 177.0
50.477789813 192.0
50.482713669 182.0
50.487637525 203.0
50.492561381 186.0
50.497485237 190.0
50.502409093 198.0
50.507332949 197.0
50.512256805 181.0
50.517180661 193.0
50.522104517 223.0
50.527028373 184.0
50.531952229 217.0
50.536876085 202.0
50.541799941 205.0
50.546723797 204.0
50.551647653 194.0
50.556571509 181.0
50.561495365 201.0
50.566419221 198.0
50.571343077 181.0
50.576266933 191.0
50.581190789 207.0
50.586114645 205.0
50.591038501 196.0
50.595962357 188.0
50.600886213 177.0
50.605810069 179.0
50.610733925 187.0
50.615657781 212.0
50.620581637 218.0
50.625505493 196.0
50.630429349 178.0
50.635353205 165.0
50.640277061 207.0
50.645200917 210.0
50.650124773 184.0
50.655048629 189.0
50.659972485 183.0
50.664896341 197.0
50.669820197 208.0
50.674744053 195.0
50.679667909 188.0
50.684591765 210.0
50.689515621 188.0
50.694439477 181.0
50.699363333 186.0
50.704287189 209.0
50.709211045 182.0
50.714134901 203.0
50.719058757 197.0
50.723982613 199.0
50.728906469 163.0
50.733830325 260.0
50.738754181 179.0
50.743678037 205.0
50.748601893 214.0
50.753525750 184.0
50.758449606 188.0
50.763373462 199.0
50.768297318 193.0
50.773221174 192.0
50.778145030 214.0
50.783068886 210.0
50.787992742 212.0
50.792916598 186.0
50.797840454 220.0
50.802764310 212.0
50.807688166 209.0
50.812612022 213.0
50.817535878 202.0
50.822459734 200.0
50.827383590 226.0
50.832307446 211.0
50.837231302 226.0
50.842155158 218.0
50.847079014 195.0
50.852002870 231.0
50.856926726 199.0
50.861850582 262.0
50.866774438 217.0
50.871698294 227.0
50.876622150 194.0
50.881546006 201.0
50.886469862 220.0
50.891393718 225.0
50.896317574 225.0
50.901241430 203.0
50.906165286 213.0
50.911089142 259.0
50.916012998 217.0
50.920936854 214.0
50.925860710 258.0
50.930784566 210.0
50.935708422 268.0
50.940632278 290.0
50.945556134 231.0
50.950479990 219.0
50.955403846 295.0
50.960327702 259.0
50.965251558 267.0
50.970175414 266.0
50.975099270 226.0
50.980023126 264.0
50.984946982 298.0
50.989870838 322.0
50.994794694 306.0
50.999718550 294.0
51.004642406 232.0
51.009566262 283.0
51.014490118 230.0
51.019413974 221.0
51.024337830 305.0
51.029261686 290.0
51.034185542 273.0
51.039109398 286.0
51.044033254 225.0
51.048957110 294.0
51.053880966 296.0
51.058804822 297.0
51.063728678 308.0
51.068652534 294.0
51.073576390 317.0
51.078500246 283.0
51.083424102 277.0
51.088347958 272.0
51.093271814 315.0
51.098195670 333.0
51.103119526 331.0
51.108043382 299.0
51.112967238 314.0
51.117891094 302.0
51.122814950 289.0
51.127738806 321.0
51.132662662 302.0
51.137586518 309.0
51.142510374 336.0
51.147434230 316.0
51.152358086 314.0
51.157281942 281.0
51.162205798 300.0
51.167129654 282.0
51.172053510 316.0
51.176977366 343.0
51.181901222 343.0
51.186825078 358.0
51.191748934 354.0
51.196672790 350.0
51.201596646 358.0
51.206520502 330.0
51.211444358 336.0
51.216368214 333.0
51.221292070 334.0
51.226215926 355.0
51.231139782 324.0
51.236063638 334.0
51.240987494 284.0
51.245911350 351.0
51.250835207 356.0
51.255759063 362.0
51.260682919 336.0
51.265606775 369.0
51.270530631 325.0
51.275454487 366.0
51.280378343 374.0
51.285302199 352.0
51.290226055 383.0
51.295149911 370.0
51.300073767 376.0
51.304997623 382.0
51.309921479 384.0
51.314845335 393.0
51.319769191 357.0
51.324693047 380.0
51.329616903 404.0
51.334540759 387.0
51.339464615 387.0
51.344388471 401.0
51.349312327 368.0
51.354236183 423.0
51.359160039 379.0
51.364083895 391.0
51.369007751 440.0
51.373931607 399.0
51.378855463 428.0
51.383779319 432.0
51.388703175 431.0
51.393627031 395.0
51.398550887 411.0
51.403474743 443.0
51.408398599 416.0
51.413322455 446.0
51.418246311 443.0
51.423170167 432.0
51.428094023 457.0
51.433017879 451.0
51.437941735 439.0
51.442865591 463.0
51.447789447 531.0
51.452713303 405.0
51.457637159 438.0
51.462561015 460.0
51.467484871 495.0
51.472408727 491.0
51.477332583 479.0
51.482256439 482.0
51.487180295 464.0
51.492104151 520.0
51.497028007 521.0
51.501951863 468.0
51.506875719 486.0
51.511799575 475.0
51.516723431 498.0
51.521647287 470.0
51.526571143 477.0
51.531494999 478.0
51.536418855 472.0
51.541342711 494.0
51.546266567 508.0
51.551190423 476.0
51.556114279 539.0
51.561038135 534.0
51.565961991 580.0
51.570885847 546.0
51.575809703 553.0
51.580733559 534.0
51.585657415 529.0
51.590581271 548.0
51.595505127 541.0
51.600428983 538.0
51.605352839 520.0
51.610276695 559.0
51.615200551 527.0
51.620124407 568.0
51.625048263 582.0
51.629972119 571.0
51.634895975 563.0
51.639819831 579.0
51.644743687 574.0
51.649667543 564.0
51.654591399 546.0
51.659515255 625.0
51.664439111 556.0
51.669362967 574.0
51.674286823 634.0
51.679210679 594.0
51.684134535 662.0
51.689058391 594.0
51.693982247 587.0
51.698906103 574.0
51.703829959 568.0
51.708753815 641.0
51.713677671 645.0
51.718601527 607.0
51.723525383 632.0
51.728449239 654.0
51.733373095 659.0
51.738296951 602.0
51.743220807 633.0
51.748144663 660.0
51.753068520 647.0
51.757992376 674.0
51.762916232 672.0
51.767840088 653.0
51.772763944 701.0
51.777687800 664.0
51.782611656 707.0
51.787535512 701.0
51.792459368 678.0
51.797383224 674.0
51.802307080 646.0
51.807230936 704.0
51.812154792 730.0
51.817078648 705.0
51.822002504 733.0
51.826926360 740.0
51.831850216 772.0
51.836774072 730.0
51.841697928 677.0
51.846621784 791.0
51.851545640 723.0
51.856469496 744.0
51.861393352 749.0
51.866317208 783.0
51.871241064 770.0
51.876164920 800.0
51.881088776 725.0
51.886012632 759.0
51.890936488 831.0
51.895860344 833.0
51.900784200 781.0
51.905708056 849.0
51.910631912 823.0
51.915555768 781.0
51.920479624 904.0
51.925403480 888.0
51.930327336 850.0
51.935251192 840.0
51.940175048 889.0
51.945098904 848.0
51.950022760 904.0
51.954946616 898.0
51.959870472 898.0
51.964794328 918.0
51.969718184 958.0
51.974642040 945.0
51.979565896 992.0
51.984489752 975.0
51.989413608 953.0
51.994337464 1001.0
51.999261320 1027.0
52.004185176 988.0
52.009109032 995.0
52.014032888 1067.0
52.018956744 1036.0
52.023880600 987.0
52.028804456 1095.0
52.033728312 1068.0
52.038652168 1099.0
52.043576024 1081.0
52.048499880 1204.0
52.053423736 1196.0
52.058347592 1178.0
52.063271448 1306.0
52.068195304 1303.0
52.073119160 1237.0
52.078043016 1288.0
52.082966872 1241.0
52.087890728 1369.0
52.092814584 1404.0
52.097738440 1366.0
52.102662296 1345.0
52.107586152 1471.0
52.112510008 1459.0
52.117433864 1447.0
52.122357720 1530.0
52.127281576 1575.0
52.132205432 1572.0
52.137129288 1554.0
52.142053144 1706.0
52.146977000 1727.0
52.151900856 1743.0
52.156824712 1863.0
52.161748568 1826.0
52.166672424 1925.0
52.171596280 1996.0
52.176520136 2133.0
52.181443992 2217.0
52.186367848 2396.0
52.191291704 2480.0
52.196215560 2630.0
52.201139416 2836.0
52.206063272 2975.0
52.210987128 3289.0
52.215910984 3449.0
52.220834840 3617.0
52.225758696 3934.0
52.230682552 4050.0
52.235606408 4323.0
52.240530264 4514.0
52.245454120 4661.0
52.250377977 4866.0
52.255301833 5042.0
52.260225689 5213.0
52.265149545 5220.0
52.270073401 5331.0
52.274997257 5282.0
52.279921113 5295.0
52.284844969 5392.0
52.289768825 5087.0
52.294692681 5252.0
52.299616537 5163.0
52.304540393 5239.0
52.309464249 5152.0
52.314388105 5035.0
52.319311961 5112.0
52.324235817 5135.0
52.329159673 5148.0
52.334083529 5391.0
52.339007385 5474.0
52.343931241 5695.0
52.348855097 5789.0
52.353778953 5981.0
52.358702809 6236.0
52.363626665 6872.0
52.368550521 7130.0
52.373474377 7618.0
52.378398233 8012.0
52.383322089 8661.0
52.388245945 9406.0
52.393169801 10186.0
52.398093657 11197.0
52.403017513 12341.0
52.407941369 13959.0
52.412865225 15309.0
52.417789081 17478.0
52.422712937 19825.0
52.427636793 23017.0
52.432560649 26545.0
52.437484505 31923.0
52.442408361 39086.0
52.447332217 49334.0
52.452256073 63830.0
52.457179929 87618.0
52.462103785 126010.0
52.467027641 183463.0
52.471951497 259432.0
52.476875353 325908.0
52.481799209 378302.0
52.486723065 410483.0
52.491646921 434417.0
52.496570777 442891.0
52.501494633 448819.0
52.506418489 443788.0
52.511342345 432557.0
52.516266201 409124.0
52.521190057 365516.0
52.526113913 299868.0
52.531037769 222418.0
52.535961625 160655.0
52.540885481 115967.0
52.545809337 87968.0
52.550733193 67051.0
52.555657049 53484.0
52.560580905 44331.0
52.565504761 38762.0
52.570428617 35616.0
52.575352473 34326.0
52.580276329 34540.0
52.585200185 37244.0
52.590124041 42433.0
52.595047897 50424.0
52.599971753 65633.0
52.604895609 86617.0
52.609819465 116700.0
52.614743321 147563.0
52.619667177 177124.0
52.624591033 198603.0
52.629514889 213136.0
52.634438745 221191.0
52.639362601 224955.0
52.644286457 224715.0
52.649210313 219079.0
52.654134169 209283.0
52.659058025 192150.0
52.663981881 166365.0
52.668905737 134241.0
52.673829593 103110.0
52.678753449 75478.0
52.683677305 56151.0
52.688601161 41938.0
52.693525017 32554.0
52.698448873 25821.0
52.703372729 21152.0
52.708296585 17794.0
52.713220441 15045.0
52.718144297 13238.0
52.723068153 11513.0
52.727992009 10539.0
52.732915865 9421.0
52.737839721 8708.0
52.742763577 8072.0
52.747687433 7446.0
52.752611290 6937.0
52.757535146 6507.0
52.762459002 6017.0
52.767382858 5911.0
52.772306714 5485.0
52.777230570 5117.0
52.782154426 5056.0
52.787078282 4728.0
52.792002138 4627.0
52.796925994 4348.0
52.801849850 4160.0
52.806773706 3995.0
52.811697562 3840.0
52.816621418 3771.0
52.821545274 3577.0
52.826469130 3501.0
52.831392986 3169.0
52.836316842 3308.0
52.841240698 3063.0
52.846164554 3077.0
52.851088410 2968.0
52.856012266 2803.0
52.860936122 2629.0
52.865859978 2622.0
52.870783834 2612.0
52.875707690 2521.0
52.880631546 2447.0
52.885555402 2417.0
52.890479258 2341.0
52.895403114 2273.0
52.900326970 2248.0
52.905250826 2244.0
52.910174682 2168.0
52.915098538 2067.0
52.920022394 2096.0
52.924946250 2042.0
52.929870106 1901.0
52.934793962 1854.0
52.939717818 1910.0
52.944641674 1811.0
52.949565530 1771.0
52.954489386 1689.0
52.959413242 1734.0
52.964337098 1666.0
52.969260954 1703.0
52.974184810 1542.0
52.979108666 1598.0
52.984032522 1501.0
52.988956378 1537.0
52.993880234 1455.0
52.998804090 1493.0
53.003727946 1363.0
53.008651802 1448.0
53.013575658 1335.0
53.018499514 1259.0
53.023423370 1405.0
53.028347226 1305.0
53.033271082 1248.0
53.038194938 1294.0
53.043118794 1238.0
53.048042650 1152.0
53.052966506 1173.0
53.057890362 1125.0
53.062814218 1166.0
53.067738074 1108.0
53.072661930 1102.0
53.077585786 1118.0
53.082509642 1092.0
53.087433498 1081.0
53.092357354 1033.0
53.097281210 984.0
53.102205066 1014.0
53.107128922 988.0
53.112052778 992.0
53.116976634 935.0
53.121900490 965.0
53.126824346 920.0
53.131748202 982.0
53.136672058 903.0
53.141595914 861.0
53.146519770 881.0
53.151443626 889.0
53.156367482 869.0
53.161291338 850.0
53.166215194 838.0
53.171139050 887.0
53.176062906 832.0
53.180986762 822.0
53.185910618 831.0
53.190834474 777.0
53.195758330 769.0
53.200682186 819.0
53.205606042 789.0
53.210529898 783.0
53.215453754 826.0
53.220377610 710.0
53.225301466 722.0
53.230225322 724.0
53.235149178 738.0
53.240073034 705.0
53.244996890 679.0
53.249920747 730.0
53.254844603 696.0
53.259768459 685.0
53.264692315 662.0
53.269616171 666.0
53.274540027 681.0
53.279463883 635.0
53.284387739 630.0
53.289311595 642.0
53.294235451 665.0
53.299159307 597.0
53.304083163 597.0
53.309007019 599.0
53.313930875 602.0
53.318854731 583.0
53.323778587 624.0
53.328702443 610.0
53.333626299 586.0
53.338550155 551.0
53.343474011 546.0
53.348397867 614.0
53.353321723 543.0
53.358245579 531.0
53.363169435 554.0
53.368093291 529.0
53.373017147 559.0
53.377941003 512.0
53.382864859 490.0
53.387788715 520.0
53.392712571 507.0
53.397636427 480.0
53.402560283 481.0
53.407484139 468.0
53.412407995 470.0
53.417331851 510.0
53.422255707 505.0
53.427179563 474.0
53.432103419 451.0
53.437027275 492.0
53.441951131 435.0
53.446874987 467.0
53.451798843 463.0
53.456722699 440.0
53.461646555 456.0
53.466570411 457.0
53.471494267 420.0
53.476418123 422.0
53.481341979 420.0
53.486265835 417.0
53.491189691 409.0
53.496113547 424.0
53.501037403 393.0
53.505961259 407.0
53.510885115 409.0
53.515808971 398.0
53.520732827 406.0
53.525656683 362.0
53.530580539 381.0
53.535504395 402.0
53.540428251 346.0
53.545352107 364.0
53.550275963 364.0
53.555199819 364.0
53.560123675 339.0
53.565047531 365.0
53.569971387 347.0
53.574895243 349.0
53.579819099 344.0
53.584742955 354.0
53.589666811 330.0
53.594590667 321.0
53.599514523 361.0
53.604438379 336.0
53.609362235 339.0
53.614286091 329.0
53.619209947 331.0
53.624133803 307.0
53.629057659 316.0
53.633981515 309.0
53.638905371 301.0
53.643829227 315.0
53.648753083 294.0
53.653676939 297.0
53.658600795 272.0
53.663524651 280.0
53.668448507 275.0
53.673372363 294.0
53.678296219 280.0
53.683220075 301.0
53.688143931 278.0
53.693067787 287.0
53.697991643 284.0
53.702915499 272.0
53.707839355 277.0
53.712763211 266.0
53.717687067 279.0
53.722610923 287.0
53.727534779 283.0
53.732458635 255.0
53.737382491 219.0
53.742306347 266.0
53.747230203 268.0
53.752154060 286.0
53.757077916 215.0
53.762001772 257.0
53.766925628 224.0
53.771849484 294.0
53.776773340 231.0
53.781697196 224.0
53.786621052 216.0
53.791544908 214.0
53.796468764 217.0
53.801392620 215.0
53.806316476 263.0
53.811240332 260.0
53.816164188 225.0
53.821088044 211.0
53.826011900 201.0
53.830935756 224.0
53.835859612 217.0
53.840783468 214.0
53.845707324 227.0
53.850631180 209.0
53.855555036 218.0
53.860478892 215.0
53.865402748 199.0
53.870326604 200.0
53.875250460 215.0
53.880174316 173.0
53.885098172 202.0
53.890022028 219.0
53.894945884 192.0
53.899869740 195.0
53.904793596 190.0
53.909717452 203.0
53.914641308 212.0
53.919565164 211.0
53.924489020 188.0
53.929412876 190.0
53.934336732 191.0
53.939260588 195.0
53.944184444 194.0
53.949108300 198.0
53.954032156 178.0
53.958956012 217.0
53.963879868 208.0
53.968803724 193.0
53.973727580 181.0
53.978651436 196.0
53.983575292 174.0
53.988499148 197.0
53.993423004 202.0
53.998346860 217.0
54.003270716 193.0
54.008194572 190.0
54.013118428 164.0
54.018042284 163.0
54.022966140 158.0
54.027889996 188.0
54.032813852 166.0
54.037737708 185.0
54.042661564 199.0
54.047585420 162.0
54.052509276 166.0
54.057433132 175.0
54.062356988 174.0
54.067280844 176.0
54.072204700 160.0
54.077128556 163.0
54.082052412 183.0
54.086976268 175.0
54.091900124 184.0
54.096823980 188.0
54.101747836 180.0
54.106671692 164.0
54.111595548 171.0
54.116519404 153.0
54.121443260 186.0
54.126367116 163.0
54.131290972 175.0
54.136214828 145.0
54.141138684 175.0
54.146062540 162.0
54.150986396 165.0
54.155910252 183.0
54.160834108 182.0
54.165757964 154.0
54.170681820 174.0
54.175605676 170.0
54.180529532 178.0
54.185453388 153.0
54.190377244 164.0
54.195301100 143.0
54.200224956 163.0
54.205148812 193.0
54.210072668 161.0
54.214996524 158.0
54.219920380 155.0
54.224844236 170.0
54.229768092 177.0
54.234691948 156.0
54.239615804 129.0
54.244539660 161.0
54.249463517 164.0
54.254387373 160.0
54.259311229 157.0
54.264235085 136.0
54.269158941 152.0
54.274082797 166.0
54.279006653 144.0
54.283930509 158.0
54.288854365 158.0
54.293778221 164.0
54.298702077 136.0
54.303625933 167.0
54.308549789 179.0
54.313473645 151.0
54.318397501 143.0
54.323321357 174.0
54.328245213 165.0
54.333169069 128.0
54.338092925 165.0
54.343016781 172.0
54.347940637 158.0
54.352864493 142.0
54.357788349 142.0
54.362712205 144.0
54.367636061 173.0
54.372559917 179.0
54.377483773 161.0
54.382407629 142.0
54.387331485 120.0
54.392255341 167.0
54.397179197 164.0
54.402103053 137.0
54.407026909 162.0
54.411950765 159.0
54.416874621 157.0
54.421798477 146.0
54.426722333 157.0
54.431646189 163.0
54.436570045 140.0
54.441493901 157.0
54.446417757 145.0
54.451341613 132.0
54.456265469 142.0
54.461189325 144.0
54.466113181 142.0
54.471037037 149.0
54.475960893 154.0
54.480884749 133.0
54.485808605 136.0
54.490732461 134.0
54.495656317 154.0
54.500580173 172.0
54.505504029 136.0
54.510427885 145.0
54.515351741 143.0
54.520275597 136.0
54.525199453 144.0
54.530123309 129.0
54.535047165 135.0
54.539971021 116.0
54.544894877 127.0
54.549818733 147.0
54.554742589 136.0
54.559666445 150.0
54.564590301 128.0
54.569514157 118.0
54.574438013 143.0
54.579361869 152.0
54.584285725 163.0
54.589209581 159.0
54.594133437 131.0
54.599057293 145.0
54.603981149 150.0
54.608905005 156.0
54.613828861 115.0
54.618752717 144.0
54.623676573 141.0
54.628600429 149.0
54.633524285 143.0
54.638448141 159.0
54.643371997 144.0
54.648295853 132.0
54.653219709 127.0
54.658143565 118.0
54.663067421 132.0
54.667991277 146.0
54.672915133 136.0
54.677838989 140.0
54.682762845 144.0
54.687686701 139.0
54.692610557 128.0
54.697534413 141.0
54.702458269 126.0
54.707382125 134.0
54.712305981 134.0
54.717229837 127.0
54.722153693 124.0
54.727077549 132.0
54.732001405 137.0
54.736925261 135.0
54.741849117 143.0
54.746772973 128.0
54.751696830 133.0
54.756620686 153.0
54.761544542 125.0
54.766468398 138.0
54.771392254 153.0
54.776316110 139.0
54.781239966 142.0
54.786163822 113.0
54.791087678 119.0
54.796011534 147.0
54.800935390 150.0
54.805859246 135.0
54.810783102 148.0
54.815706958 136.0
54.820630814 151.0
54.825554670 123.0
54.830478526 131.0
54.835402382 132.0
54.840326238 133.0
54.845250094 128.0
54.850173950 135.0
54.855097806 137.0
54.860021662 133.0
54.864945518 144.0
54.869869374 123.0
54.874793230 126.0
54.879717086 150.0
54.884640942 152.0
54.889564798 133.0
54.894488654 118.0
54.899412510 137.0
54.904336366 139.0
54.909260222 126.0
54.914184078 131.0
54.919107934 137.0
54.924031790 116.0
54.928955646 142.0
54.933879502 124.0
54.938803358 134.0
54.943727214 128.0
54.948651070 118.0
54.953574926 143.0
54.958498782 130.0
54.963422638 120.0
54.968346494 121.0
54.973270350 138.0
54.978194206 150.0
54.983118062 119.0
54.988041918 139.0
54.992965774 158.0
54.997889630 142.0
