45.002461930 133.0
45.007385786 119.0
45.012309642 101.0
45.017233498 107.0
45.022157354 103.0
45.027081210 126.0
45.032005066 121.0
45.036928922 110.0
45.041852778 113.0
45.046776634 105.0
45.051700490 106.0
45.056624346 100.0
45.061548202 107.0
45.066472058 121.0
45.071395914 117.0
45.076319770 125.0
45.081243626 99.0
45.086167482 90.0
45.091091338 103.0
45.096015194 102.0
45.100939050 99.0
45.105862906 114.0
45.110786762 128.0
45.115710618 112.0
45.120634474 114.0
45.125558330 99.0
45.130482186 97.0
45.135406042 107.0
45.140329898 95.0
45.145253754 103.0
45.150177610 117.0
45.155101466 110.0
45.160025322 113.0
45.164949178 93.0
45.169873034 99.0
45.174796890 91.0
45.179720746 123.0
45.184644602 95.0
45.189568458 107.0
45.194492314 97.0
45.199416170 98.0
45.204340026 104.0
45.209263882 121.0
45.214187738 101.0
45.219111594 89.0
45.224035450 112.0
45.228959306 118.0
45.233883162 105.0
45.238807018 99.0
45.243730874 92.0
45.248654730 110.0
45.253578587 97.0
45.258502443 91.0
45.263426299 106.0
45.268350155 105.0
45.273274011 100.0
45.278197867 104.0
45.283121723 92.0
45.288045579 106.0
45.292969435 110.0
45.297893291 98.0
45.302817147 93.0
45.307741003 119.0
45.312664859 93.0
45.317588715 111.0
45.322512571 94.0
45.327436427 94.0
45.332360283 108.0
45.337284139 79.0
45.342207995 106.0
45.347131851 87.0
45.352055707 98.0
45.356979563 112.0
45.361903419 85.0
45.366827275 96.0
45.371751131 91.0
45.376674987 90.0
45.381598843 100.0
45.386522699 96.0
45.391446555 89.0
45.396370411 83.0
45.401294267 93.0
45.406218123 115.0
45.411141979 98.0
45.416065835 106.0
45.420989691 89.0
45.425913547 104.0
45.430837403 109.0
45.435761259 108.0
45.440685115 85.0
45.445608971 96.0
45.450532827 103.0
45.455456683 107.0
45.460380539 85.0
45.465304395 102.0
45.470228251 107.0
45.475152107 92.0
45.480075963 102.0
45.484999819 106.0
45.489923675 98.0
45.494847531 115.0
45.499771387 107.0
45.504695243 101.0
45.509619099 98.0
45.514542955 111.0
45.519466811 108.0
45.524390667 110.0
45.529314523 111.0
45.534238379 81.0
45.539162235 94.0
45.544086091 86.0
45.549009947 108.0
45.553933803 92.0
45.558857659 89.0
45.563781515 120.0
45.568705371 106.0
45.573629227 108.0
45.578553083 99.0
45.583476939 107.0
45.588400795 89.0
45.593324651 105.0
45.598248507 89.0
45.603172363 104.0
45.608096219 99.0
45.613020075 96.0
45.617943931 87.0
45.622867787 98.0
45.627791643 101.0
45.632715499 84.0
45.637639355 103.0
45.642563211 94.0
45.647487067 107.0
45.652410923 105.0
45.657334779 95.0
45.662258635 88.0
45.667182491 126.0
45.672106347 100.0
45.677030203 96.0
45.681954059 111.0
45.686877915 85.0
45.691801771 88.0
45.696725627 84.0
45.701649483 94.0
45.706573339 115.0
45.711497195 115.0
45.716421051 110.0
45.721344907 93.0
45.726268763 89.0
45.731192619 110.0
45.736116475 85.0
45.741040331 81.0
45.745964187 97.0
45.750888043 104.0
45.755811900 112.0
45.760735756 85.0
45.765659612 87.0
45.770583468 91.0
45.775507324 113.0
45.780431180 98.0
45.785355036 120.0
45.790278892 112.0
45.795202748 98.0
45.800126604 93.0
45.805050460 121.0
45.809974316 94.0
45.814898172 95.0
45.819822028 86.0
45.824745884 96.0
45.829669740 103.0
45.834593596 99.0
45.839517452 113.0
45.844441308 103.0
45.849365164 118.0
45.854289020 90.0
45.859212876 93.0
45.864136732 101.0
45.869060588 105.0
45.873984444 103.0
45.878908300 95.0
45.883832156 89.0
45.888756012 97.0
45.893679868 102.0
45.898603724 103.0
45.903527580 102.0
45.908451436 87.0
45.913375292 80.0
45.918299148 92.0
45.923223004 109.0
45.928146860 75.0
45.933070716 101.0
45.937994572 109.0
45.942918428 88.0
45.947842284 89.0
45.952766140 99.0
45.957689996 95.0
45.962613852 89.0
45.967537708 86.0
45.972461564 97.0
45.977385420 97.0
45.982309276 115.0
45.987233132 97.0
45.992156988 95.0
45.997080844 106.0
46.002004700 99.0
46.006928556 80.0
46.011852412 99.0
46.016776268 83.0
46.021700124 107.0
46.026623980 103.0
46.031547836 87.0
46.036471692 95.0
46.041395548 96.0
46.046319404 100.0
46.051243260 88.0
46.056167116 113.0
46.061090972 96.0
46.066014828 92.0
46.070938684 105.0
46.075862540 91.0
46.080786396 101.0
46.085710252 110.0
46.090634108 133.0
46.095557964 91.0
46.100481820 103.0
46.105405676 96.0
46.110329532 93.0
46.115253388 112.0
46.120177244 82.0
46.125101100 99.0
46.130024956 90.0
46.134948812 78.0
46.139872668 108.0
46.144796524 108.0
46.149720380 91.0
46.154644236 93.0
46.159568092 91.0
46.164491948 84.0
46.169415804 109.0
46.174339660 87.0
46.179263516 117.0
46.184187372 88.0
46.189111228 100.0
46.194035084 124.0
46.198958940 71.0
46.203882796 95.0
46.208806652 88.0
46.213730508 90.0
46.218654364 100.0
46.223578220 89.0
46.228502076 96.0
46.233425932 93.0
46.238349788 102.0
46.243273644 97.0
46.248197500 97.0
46.253121357 102.0
46.258045213 113.0
46.262969069 110.0
46.267892925 104.0
46.272816781 82.0
46.277740637 96.0
46.282664493 101.0
46.287588349 93.0
46.292512205 103.0
46.297436061 118.0
46.302359917 94.0
46.307283773 108.0
46.312207629 95.0
46.317131485 102.0
46.322055341 99.0
46.326979197 85.0
46.331903053 90.0
46.336826909 101.0
46.341750765 108.0
46.346674621 88.0
46.351598477 80.0
46.356522333 117.0
46.361446189 94.0
46.366370045 93.0
46.371293901 88.0
46.376217757 83.0
46.381141613 94.0
46.386065469 109.0
46.390989325 122.0
46.395913181 96.0
46.400837037 92.0
46.405760893 110.0
46.410684749 76.0
46.415608605 97.0
46.420532461 90.0
46.425456317 104.0
46.430380173 99.0
46.435304029 104.0
46.440227885 105.0
46.445151741 93.0
46.450075597 95.0
46.454999453 102.0
46.459923309 109.0
46.464847165 97.0
46.469771021 98.0
46.474694877 110.0
46.479618733 93.0
46.484542589 107.0
46.489466445 96.0
46.494390301 97.0
46.499314157 109.0
46.504238013 122.0
46.509161869 93.0
46.514085725 111.0
46.519009581 100.0
46.523933437 106.0
46.528857293 110.0
46.533781149 106.0
46.538705005 96.0
46.543628861 112.0
46.548552717 91.0
46.553476573 96.0
46.558400429 126.0
46.563324285 120.0
46.568248141 107.0
46.573171997 95.0
46.578095853 125.0
46.583019709 123.0
46.587943565 105.0
46.592867421 107.0
46.597791277 118.0
46.602715133 95.0
46.607638989 74.0
46.612562845 109.0
46.617486701 112.0
46.622410557 123.0
46.627334413 88.0
46.632258269 92.0
46.637182125 113.0
46.642105981 103.0
46.647029837 94.0
46.651953693 108.0
46.656877549 108.0
46.661801405 107.0
46.666725261 106.0
46.671649117 118.0
46.676572973 110.0
46.681496829 116.0
46.686420685 115.0
46.691344541 116.0
46.696268397 133.0
46.701192253 119.0
46.706116109 115.0
46.711039965 105.0
46.715963821 122.0
46.720887677 113.0
46.725811533 101.0
46.730735389 113.0
46.735659245 118.0
46.740583101 123.0
46.745506957 125.0
46.750430813 103.0
46.755354670 103.0
46.760278526 102.0
46.765202382 101.0
46.770126238 120.0
46.775050094 143.0
46.779973950 125.0
46.784897806 107.0
46.789821662 108.0
46.794745518 133.0
46.799669374 94.0
46.804593230 104.0
46.809517086 128.0
46.814440942 130.0
46.819364798 115.0
46.824288654 111.0
46.829212510 112.0
46.834136366 117.0
46.839060222 87.0
46.843984078 105.0
46.848907934 124.0
46.853831790 108.0
46.858755646 126.0
46.863679502 123.0
46.868603358 124.0
46.873527214 118.0
46.878451070 122.0
46.883374926 125.0
46.888298782 110.0
46.893222638 127.0
46.898146494 135.0
46.903070350 121.0
46.907994206 98.0
46.912918062 109.0
46.917841918 136.0
46.922765774 126.0
46.927689630 115.0
46.932613486 123.0
46.937537342 118.0
46.942461198 109.0
46.947385054 145.0
46.952308910 125.0
46.957232766 133.0
46.962156622 130.0
46.967080478 132.0
46.972004334 151.0
46.976928190 121.0
46.981852046 139.0
46.986775902 131.0
46.991699758 117.0
46.996623614 149.0
47.001547470 132.0
47.006471326 165.0
47.011395182 160.0
47.016319038 174.0
47.021242894 196.0
47.026166750 187.0
47.031090606 205.0
47.036014462 291.0
47.040938318 268.0
47.045862174 359.0
47.050786030 371.0
47.055709886 456.0
47.060633742 561.0
47.065557598 648.0
47.070481454 807.0
47.075405310 975.0
47.080329166 1243.0
47.085253022 1347.0
47.090176878 1507.0
47.095100734 1668.0
47.100024590 1690.0
47.104948446 1636.0
47.109872302 1767.0
47.114796158 1684.0
47.119720014 1638.0
47.124643870 1521.0
47.129567726 1383.0
47.134491582 1152.0
47.139415438 1061.0
47.144339294 811.0
47.149263150 713.0
47.154187006 621.0
47.159110862 555.0
47.164034718 469.0
47.168958574 410.0
47.173882430 366.0
47.178806286 333.0
47.183730142 312.0
47.188653998 283.0
47.193577854 232.0
47.198501710 226.0
47.203425566 198.0
47.208349422 221.0
47.213273278 199.0
47.218197134 166.0
47.223120990 169.0
47.228044846 194.0
47.232968702 206.0
47.237892558 151.0
47.242816414 156.0
47.247740270 153.0
47.252664127 157.0
47.257587983 153.0
47.262511839 154.0
47.267435695 160.0
47.272359551 155.0
47.277283407 154.0
47.282207263 144.0
47.287131119 168.0
47.292054975 146.0
47.296978831 166.0
47.301902687 149.0
47.306826543 140.0
47.311750399 136.0
47.316674255 121.0
47.321598111 128.0
47.326521967 140.0
47.331445823 115.0
47.336369679 128.0
47.341293535 127.0
47.346217391 154.0
47.351141247 136.0
47.356065103 122.0
47.360988959 130.0
47.365912815 139.0
47.370836671 125.0
47.375760527 121.0
47.380684383 117.0
47.385608239 136.0
47.390532095 113.0
47.395455951 122.0
47.400379807 129.0
47.405303663 122.0
47.410227519 130.0
47.415151375 128.0
47.420075231 113.0
47.424999087 147.0
47.429922943 122.0
47.434846799 111.0
47.439770655 114.0
47.444694511 115.0
47.449618367 103.0
47.454542223 120.0
47.459466079 143.0
47.464389935 130.0
47.469313791 101.0
47.474237647 122.0
47.479161503 136.0
47.484085359 122.0
47.489009215 121.0
47.493933071 132.0
47.498856927 126.0
47.503780783 120.0
47.508704639 128.0
47.513628495 117.0
47.518552351 120.0
47.523476207 127.0
47.528400063 113.0
47.533323919 123.0
47.538247775 111.0
47.543171631 127.0
47.548095487 116.0
47.553019343 110.0
47.557943199 126.0
47.562867055 121.0
47.567790911 125.0
47.572714767 127.0
47.577638623 120.0
47.582562479 121.0
47.587486335 122.0
47.592410191 123.0
47.597334047 128.0
47.602257903 105.0
47.607181759 113.0
47.612105615 114.0
47.617029471 108.0
47.621953327 124.0
47.626877183 126.0
47.631801039 92.0
47.636724895 120.0
47.641648751 102.0
47.646572607 120.0
47.651496463 118.0
47.656420319 119.0
47.661344175 98.0
47.666268031 110.0
47.671191887 111.0
47.676115743 97.0
47.681039599 99.0
47.685963455 106.0
47.690887311 112.0
47.695811167 97.0
47.700735023 120.0
47.705658879 112.0
47.710582735 113.0
47.715506591 103.0
47.720430447 115.0
47.725354303 112.0
47.730278159 132.0
47.735202015 103.0
47.740125871 102.0
47.745049727 106.0
47.749973583 80.0
47.754897440 121.0
47.759821296 95.0
47.764745152 115.0
47.769669008 109.0
47.774592864 121.0
47.779516720 102.0
47.784440576 93.0
47.789364432 110.0
47.794288288 128.0
47.799212144 98.0
47.804136000 125.0
47.809059856 113.0
47.813983712 117.0
47.818907568 117.0
47.823831424 107.0
47.828755280 119.0
47.833679136 115.0
47.838602992 94.0
47.843526848 128.0
47.848450704 115.0
47.853374560 97.0
47.858298416 108.0
47.863222272 99.0
47.868146128 122.0
47.873069984 108.0
47.877993840 124.0
47.882917696 115.0
47.887841552 102.0
47.892765408 116.0
47.897689264 114.0
47.902613120 116.0
47.907536976 118.0
47.912460832 101.0
47.917384688 92.0
47.922308544 101.0
47.927232400 107.0
47.932156256 128.0
47.937080112 100.0
47.942003968 92.0
47.946927824 124.0
47.951851680 113.0
47.956775536 127.0
47.961699392 123.0
47.966623248 111.0
47.971547104 110.0
47.976470960 125.0
47.981394816 108.0
47.986318672 108.0
47.991242528 108.0
47.996166384 132.0
48.001090240 110.0
48.006014096 112.0
48.010937952 117.0
48.015861808 120.0
48.020785664 116.0
48.025709520 120.0
48.030633376 106.0
48.035557232 144.0
48.040481088 114.0
48.045404944 124.0
48.050328800 127.0
48.055252656 114.0
48.060176512 116.0
48.065100368 110.0
48.070024224 111.0
48.074948080 120.0
48.079871936 130.0
48.084795792 101.0
48.089719648 109.0
48.094643504 125.0
48.099567360 111.0
48.104491216 109.0
48.109415072 114.0
48.114338928 109.0
48.119262784 123.0
48.124186640 111.0
48.129110496 112.0
48.134034352 106.0
48.138958208 129.0
48.143882064 117.0
48.148805920 105.0
48.153729776 117.0
48.158653632 123.0
48.163577488 119.0
48.168501344 104.0
48.173425200 100.0
48.178349056 102.0
48.183272912 120.0
48.188196768 127.0
48.193120624 114.0
48.198044480 99.0
48.202968336 105.0
48.207892192 125.0
48.212816048 103.0
48.217739904 114.0
48.222663760 104.0
48.227587616 120.0
48.232511472 114.0
48.237435328 134.0
48.242359184 116.0
48.247283040 118.0
48.252206897 123.0
48.257130753 126.0
48.262054609 110.0
48.266978465 126.0
48.271902321 122.0
48.276826177 105.0
48.281750033 126.0
48.286673889 127.0
48.291597745 149.0
48.296521601 111.0
48.301445457 115.0
48.306369313 118.0
48.311293169 115.0
48.316217025 124.0
48.321140881 128.0
48.326064737 106.0
48.330988593 117.0
48.335912449 130.0
48.340836305 106.0
48.345760161 132.0
48.350684017 130.0
48.355607873 130.0
48.360531729 93.0
48.365455585 138.0
48.370379441 120.0
48.375303297 112.0
48.380227153 93.0
48.385151009 114.0
48.390074865 119.0
48.394998721 103.0
48.399922577 132.0
48.404846433 117.0
48.409770289 103.0
48.414694145 135.0
48.419618001 124.0
48.424541857 110.0
48.429465713 129.0
48.434389569 107.0
48.439313425 110.0
48.444237281 111.0
48.449161137 129.0
48.454084993 118.0
48.459008849 114.0
48.463932705 132.0
48.468856561 115.0
48.473780417 119.0
48.478704273 117.0
48.483628129 122.0
48.488551985 115.0
48.493475841 108.0
48.498399697 127.0
48.503323553 136.0
48.508247409 137.0
48.513171265 121.0
48.518095121 123.0
48.523018977 126.0
48.527942833 115.0
48.532866689 130.0
48.537790545 126.0
48.542714401 122.0
48.547638257 133.0
48.552562113 125.0
48.557485969 110.0
48.562409825 111.0
48.567333681 124.0
48.572257537 107.0
48.577181393 107.0
48.582105249 125.0
48.587029105 111.0
48.591952961 117.0
48.596876817 113.0
48.601800673 117.0
48.606724529 123.0
48.611648385 112.0
48.616572241 119.0
48.621496097 118.0
48.626419953 134.0
48.631343809 108.0
48.636267665 134.0
48.641191521 116.0
48.646115377 106.0
48.651039233 132.0
48.655963089 120.0
48.660886945 131.0
48.665810801 141.0
48.670734657 141.0
48.675658513 131.0
48.680582369 128.0
48.685506225 117.0
48.690430081 103.0
48.695353937 115.0
48.700277793 97.0
48.705201649 110.0
48.710125505 139.0
48.715049361 116.0
48.719973217 142.0
48.724897073 137.0
48.729820929 126.0
48.734744785 116.0
48.739668641 100.0
48.744592497 107.0
48.749516353 114.0
48.754440210 134.0
48.759364066 123.0
48.764287922 106.0
48.769211778 124.0
48.774135634 120.0
48.779059490 115.0
48.783983346 114.0
48.788907202 129.0
48.793831058 122.0
48.798754914 140.0
48.803678770 138.0
48.808602626 109.0
48.813526482 129.0
48.818450338 99.0
48.823374194 116.0
48.828298050 125.0
48.833221906 137.0
48.838145762 113.0
48.843069618 129.0
48.847993474 108.0
48.852917330 124.0
48.857841186 124.0
48.862765042 125.0
48.867688898 131.0
48.872612754 119.0
48.877536610 120.0
48.882460466 135.0
48.887384322 135.0
48.892308178 147.0
48.897232034 141.0
48.902155890 119.0
48.907079746 128.0
48.912003602 121.0
48.916927458 123.0
48.921851314 116.0
48.926775170 124.0
48.931699026 131.0
48.936622882 127.0
48.941546738 133.0
48.946470594 120.0
48.951394450 139.0
48.956318306 120.0
48.961242162 130.0
48.966166018 106.0
48.971089874 137.0
48.976013730 111.0
48.980937586 122.0
48.985861442 137.0
48.990785298 112.0
48.995709154 139.0
49.000633010 141.0
49.005556866 134.0
49.010480722 150.0
49.015404578 137.0
49.020328434 132.0
49.025252290 139.0
49.030176146 151.0
49.035100002 128.0
49.040023858 131.0
49.044947714 147.0
49.049871570 132.0
49.054795426 125.0
49.059719282 155.0
49.064643138 122.0
49.069566994 135.0
49.074490850 140.0
49.079414706 153.0
49.084338562 129.0
49.089262418 139.0
49.094186274 142.0
49.099110130 162.0
49.104033986 143.0
49.108957842 136.0
49.113881698 132.0
49.118805554 136.0
49.123729410 141.0
49.128653266 134.0
49.133577122 141.0
49.138500978 139.0
49.143424834 144.0
49.148348690 146.0
49.153272546 131.0
49.158196402 128.0
49.163120258 125.0
49.168044114 150.0
49.172967970 133.0
49.177891826 148.0
49.182815682 146.0
49.187739538 136.0
49.192663394 129.0
49.197587250 132.0
49.202511106 157.0
49.207434962 144.0
49.212358818 132.0
49.217282674 130.0
49.222206530 145.0
49.227130386 141.0
49.232054242 155.0
49.236978098 143.0
49.241901954 164.0
49.246825810 150.0
49.251749667 167.0
49.256673523 166.0
49.261597379 150.0
49.266521235 130.0
49.271445091 143.0
49.276368947 174.0
49.281292803 139.0
49.286216659 163.0
49.291140515 180.0
49.296064371 146.0
49.300988227 161.0
49.305912083 145.0
49.310835939 148.0
49.315759795 183.0
49.320683651 179.0
49.325607507 153.0
49.330531363 161.0
49.335455219 186.0
49.340379075 154.0
49.345302931 186.0
49.350226787 188.0
49.355150643 169.0
49.360074499 178.0
49.364998355 207.0
49.369922211 175.0
49.374846067 181.0
49.379769923 183.0
49.384693779 182.0
49.389617635 183.0
49.394541491 178.0
49.399465347 186.0
49.404389203 185.0
49.409313059 182.0
49.414236915 201.0
49.419160771 199.0
49.424084627 181.0
49.429008483 191.0
49.433932339 185.0
49.438856195 186.0
49.443780051 206.0
49.448703907 204.0
49.453627763 196.0
49.458551619 220.0
49.463475475 191.0
49.468399331 214.0
49.473323187 180.0
49.478247043 208.0
49.483170899 220.0
49.488094755 207.0
49.493018611 221.0
49.497942467 239.0
49.502866323 234.0
49.507790179 225.0
49.512714035 226.0
49.517637891 244.0
49.522561747 262.0
49.527485603 262.0
49.532409459 241.0
49.537333315 231.0
49.542257171 260.0
49.547181027 266.0
49.552104883 256.0
49.557028739 278.0
49.561952595 248.0
49.566876451 276.0
49.571800307 289.0
49.576724163 284.0
49.581648019 299.0
49.586571875 280.0
49.591495731 310.0
49.596419587 334.0
49.601343443 323.0
49.606267299 333.0
49.611191155 313.0
49.616115011 321.0
49.621038867 317.0
49.625962723 330.0
49.630886579 347.0
49.635810435 344.0
49.640734291 376.0
49.645658147 348.0
49.650582003 378.0
49.655505859 397.0
49.660429715 372.0
49.665353571 410.0
49.670277427 418.0
49.675201283 386.0
49.680125139 436.0
49.685048995 418.0
49.689972851 477.0
49.694896707 473.0
49.699820563 449.0
49.704744419 465.0
49.709668275 504.0
49.714592131 512.0
49.719515987 521.0
49.724439843 490.0
49.729363699 549.0
49.734287555 504.0
49.739211411 525.0
49.744135267 544.0
49.749059123 604.0
49.753982980 586.0
49.758906836 599.0
49.763830692 614.0
49.768754548 636.0
49.773678404 581.0
49.778602260 689.0
49.783526116 660.0
49.788449972 700.0
49.793373828 717.0
49.798297684 729.0
49.803221540 746.0
49.808145396 721.0
49.813069252 727.0
49.817993108 804.0
49.822916964 775.0
49.827840820 845.0
49.832764676 807.0
49.837688532 796.0
49.842612388 850.0
49.847536244 871.0
49.852460100 974.0
49.857383956 942.0
49.862307812 964.0
49.867231668 960.0
49.872155524 987.0
49.877079380 1011.0
49.882003236 1066.0
49.886927092 1066.0
49.891850948 1165.0
49.896774804 1138.0
49.901698660 1142.0
49.906622516 1175.0
49.911546372 1218.0
49.916470228 1164.0
49.921394084 1303.0
49.926317940 1268.0
49.931241796 1369.0
49.936165652 1386.0
49.941089508 1391.0
49.946013364 1461.0
49.950937220 1522.0
49.955861076 1571.0
49.960784932 1550.0
49.965708788 1581.0
49.970632644 1591.0
49.975556500 1630.0
49.980480356 1699.0
49.985404212 1690.0
49.990328068 1757.0
49.995251924 1812.0
50.000175780 1841.0
50.005099636 1854.0
50.010023492 1808.0
50.014947348 1930.0
50.019871204 2001.0
50.024795060 1950.0
50.029718916 2038.0
50.034642772 2016.0
50.039566628 2008.0
50.044490484 2100.0
50.049414340 2217.0
50.054338196 2125.0
50.059262052 2158.0
50.064185908 2190.0
50.069109764 2156.0
50.074033620 2273.0
50.078957476 2198.0
50.083881332 2271.0
50.088805188 2334.0
50.093729044 2325.0
50.098652900 2341.0
50.103576756 2302.0
50.108500612 2314.0
50.113424468 2422.0
50.118348324 2344.0
50.123272180 2358.0
50.128196036 2388.0
50.133119892 2350.0
50.138043748 2474.0
50.142967604 2385.0
50.147891460 2424.0
50.152815316 2318.0
50.157739172 2458.0
50.162663028 2370.0
50.167586884 2377.0
50.172510740 2318.0
50.177434596 2349.0
50.182358452 2302.0
50.187282308 2334.0
50.192206164 2296.0
50.197130020 2367.0
50.202053876 2400.0
50.206977732 2320.0
50.211901588 2219.0
50.216825444 2215.0
50.221749300 2132.0
50.226673156 2176.0
50.231597012 2114.0
50.236520868 2178.0
50.241444724 2054.0
50.246368580 1943.0
50.251292437 1970.0
50.256216293 1910.0
50.261140149 1943.0
50.266064005 1903.0
50.270987861 1847.0
50.275911717 1855.0
50.280835573 1834.0
50.285759429 1819.0
50.290683285 1747.0
50.295607141 1718.0
50.300530997 1648.0
50.305454853 1703.0
50.310378709 1605.0
50.315302565 1540.0
50.320226421 1592.0
50.325150277 1547.0
50.330074133 1463.0
50.334997989 1577.0
50.339921845 1428.0
50.344845701 1402.0
50.349769557 1399.0
50.354693413 1455.0
50.359617269 1356.0
50.364541125 1315.0
50.369464981 1292.0
50.374388837 1230.0
50.379312693 1243.0
50.384236549 1191.0
50.389160405 1106.0
50.394084261 1137.0
50.399008117 1088.0
50.403931973 1074.0
50.408855829 1037.0
50.413779685 967.0
50.418703541 960.0
50.423627397 1019.0
50.428551253 1001.0
50.433475109 905.0
50.438398965 871.0
50.443322821 882.0
50.448246677 873.0
50.453170533 803.0
50.458094389 801.0
50.463018245 816.0
50.467942101 835.0
50.472865957 727.0
50.477789813 761.0
50.482713669 724.0
50.487637525 712.0
50.492561381 651.0
50.497485237 677.0
50.502409093 671.0
50.507332949 612.0
50.512256805 654.0
50.517180661 610.0
50.522104517 598.0
50.527028373 592.0
50.531952229 610.0
50.536876085 612.0
50.541799941 568.0
50.546723797 581.0
50.551647653 555.0
50.556571509 554.0
50.561495365 530.0
50.566419221 479.0
50.571343077 515.0
50.576266933 524.0
50.581190789 479.0
50.586114645 495.0
50.591038501 491.0
50.595962357 448.0
50.600886213 430.0
50.605810069 443.0
50.610733925 469.0
50.615657781 439.0
50.620581637 447.0
50.625505493 415.0
50.630429349 405.0
50.635353205 416.0
50.640277061 372.0
50.645200917 375.0
50.650124773 410.0
50.655048629 380.0
50.659972485 362.0
50.664896341 339.0
50.669820197 359.0
50.674744053 390.0
50.679667909 355.0
50.684591765 337.0
50.689515621 350.0
50.694439477 320.0
50.699363333 316.0
50.704287189 366.0
50.709211045 356.0
50.714134901 326.0
50.719058757 330.0
50.723982613 337.0
50.728906469 305.0
50.733830325 317.0
50.738754181 308.0
50.743678037 338.0
50.748601893 309.0
50.753525750 301.0
50.758449606 314.0
50.763373462 323.0
50.768297318 314.0
50.773221174 334.0
50.778145030 286.0
50.783068886 307.0
50.787992742 301.0
50.792916598 294.0
50.797840454 305.0
50.802764310 326.0
50.807688166 280.0
50.812612022 284.0
50.817535878 308.0
50.822459734 297.0
50.827383590 282.0
50.832307446 314.0
50.837231302 300.0
50.842155158 313.0
50.847079014 293.0
50.852002870 273.0
50.856926726 284.0
50.861850582 303.0
50.866774438 276.0
50.871698294 302.0
50.876622150 269.0
50.881546006 277.0
50.886469862 267.0
50.891393718 283.0
50.896317574 315.0
50.901241430 302.0
50.906165286 311.0
50.911089142 292.0
50.916012998 284.0
50.920936854 290.0
50.925860710 282.0
50.930784566 322.0
50.935708422 307.0
50.940632278 285.0
50.945556134 313.0
50.950479990 278.0
50.955403846 276.0
50.960327702 266.0
50.965251558 301.0
50.970175414 309.0
50.975099270 328.0
50.980023126 300.0
50.984946982 319.0
50.989870838 279.0
50.994794694 276.0
50.999718550 306.0
51.004642406 300.0
51.009566262 285.0
51.014490118 307.0
51.019413974 325.0
51.024337830 308.0
51.029261686 292.0
51.034185542 305.0
51.039109398 333.0
51.044033254 316.0
51.048957110 298.0
51.053880966 304.0
51.058804822 307.0
51.063728678 338.0
51.068652534 266.0
51.073576390 287.0
51.078500246 324.0
51.083424102 299.0
51.088347958 318.0
51.093271814 321.0
51.098195670 328.0
51.103119526 312.0
51.108043382 360.0
51.112967238 353.0
51.117891094 347.0
51.122814950 325.0
51.127738806 310.0
51.132662662 330.0
51.137586518 333.0
51.142510374 300.0
51.147434230 350.0
51.152358086 336.0
51.157281942 340.0
51.162205798 358.0
51.167129654 348.0
51.172053510 329.0
51.176977366 338.0
51.181901222 388.0
51.186825078 348.0
51.191748934 328.0
51.196672790 333.0
51.201596646 358.0
51.206520502 366.0
51.211444358 315.0
51.216368214 401.0
51.221292070 343.0
51.226215926 379.0
51.231139782 332.0
51.236063638 394.0
51.240987494 377.0
51.245911350 386.0
51.250835207 339.0
51.255759063 356.0
51.260682919 344.0
51.265606775 371.0
51.270530631 399.0
51.275454487 388.0
51.280378343 396.0
51.285302199 379.0
51.290226055 371.0
51.295149911 368.0
51.300073767 381.0
51.304997623 390.0
51.309921479 377.0
51.314845335 391.0
51.319769191 382.0
51.324693047 397.0
51.329616903 369.0
51.334540759 421.0
51.339464615 420.0
51.344388471 421.0
51.349312327 452.0
51.354236183 396.0
51.359160039 443.0
51.364083895 448.0
51.369007751 405.0
51.373931607 427.0
51.378855463 435.0
51.383779319 407.0
51.388703175 438.0
51.393627031 435.0
51.398550887 442.0
51.403474743 405.0
51.408398599 429.0
51.413322455 496.0
51.418246311 441.0
51.423170167 424.0
51.428094023 477.0
51.433017879 464.0
51.437941735 453.0
51.442865591 465.0
51.447789447 460.0
51.452713303 462.0
51.457637159 470.0
51.462561015 457.0
51.467484871 456.0
51.472408727 468.0
51.477332583 490.0
51.482256439 475.0
51.487180295 501.0
51.492104151 508.0
51.497028007 433.0
51.501951863 475.0
51.506875719 526.0
51.511799575 486.0
51.516723431 501.0
51.521647287 515.0
51.526571143 547.0
51.531494999 487.0
51.536418855 522.0
51.541342711 508.0
51.546266567 511.0
51.551190423 501.0
51.556114279 532.0
51.561038135 570.0
51.565961991 529.0
51.570885847 557.0
51.575809703 525.0
51.580733559 516.0
51.585657415 545.0
51.590581271 564.0
51.595505127 555.0
51.600428983 471.0
51.605352839 538.0
51.610276695 521.0
51.615200551 543.0
51.620124407 564.0
51.625048263 595.0
51.629972119 557.0
51.634895975 569.0
51.639819831 550.0
51.644743687 571.0
51.649667543 613.0
51.654591399 654.0
51.659515255 584.0
51.664439111 593.0
51.669362967 580.0
51.674286823 581.0
51.679210679 635.0
51.684134535 598.0
51.689058391 617.0
51.693982247 638.0
51.698906103 644.0
51.703829959 587.0
51.708753815 631.0
51.713677671 610.0
51.718601527 596.0
51.723525383 637.0
51.728449239 690.0
51.733373095 638.0
51.738296951 676.0
51.743220807 658.0
51.748144663 630.0
51.753068520 694.0
51.757992376 669.0
51.762916232 610.0
51.767840088 643.0
51.772763944 711.0
51.777687800 682.0
51.782611656 685.0
51.787535512 672.0
51.792459368 723.0
51.797383224 680.0
51.802307080 709.0
51.807230936 698.0
51.812154792 692.0
51.817078648 697.0
51.822002504 707.0
51.826926360 706.0
51.831850216 753.0
51.836774072 722.0
51.841697928 765.0
51.846621784 731.0
51.851545640 722.0
51.856469496 780.0
51.861393352 800.0
51.866317208 755.0
51.871241064 743.0
51.876164920 776.0
51.881088776 796.0
51.886012632 812.0
51.890936488 803.0
51.895860344 808.0
51.900784200 798.0
51.905708056 841.0
51.910631912 777.0
51.915555768 852.0
51.920479624 825.0
51.925403480 846.0
51.930327336 871.0
51.935251192 841.0
51.940175048 901.0
51.945098904 856.0
51.950022760 874.0
51.954946616 912.0
51.959870472 956.0
51.964794328 888.0
51.969718184 866.0
51.974642040 932.0
51.979565896 976.0
51.984489752 918.0
51.989413608 968.0
51.994337464 1007.0
51.999261320 1029.0
52.004185176 1069.0
52.009109032 1020.0
52.014032888 1021.0
52.018956744 1030.0
52.023880600 1080.0
52.028804456 1067.0
52.033728312 1108.0
52.038652168 1106.0
52.043576024 1161.0
52.048499880 1117.0
52.053423736 1179.0
52.058347592 1149.0
52.063271448 1224.0
52.068195304 1254.0
52.073119160 1280.0
52.078043016 1290.0
52.082966872 1226.0
52.087890728 1334.0
52.092814584 1351.0
52.097738440 1352.0
52.102662296 1347.0
52.107586152 1393.0
52.112510008 1369.0
52.117433864 1463.0
52.122357720 1532.0
52.127281576 1594.0
52.132205432 1618.0
52.137129288 1581.0
52.142053144 1739.0
52.146977000 1676.0
52.151900856 1812.0
52.156824712 1838.0
52.161748568 1852.0
52.166672424 1936.0
52.171596280 2074.0
52.176520136 2098.0
52.181443992 2373.0
52.186367848 2344.0
52.191291704 2724.0
52.196215560 2681.0
52.201139416 2909.0
52.206063272 3037.0
52.210987128 3414.0
52.215910984 3537.0
52.220834840 3726.0
52.225758696 3909.0
52.230682552 4217.0
52.235606408 4438.0
52.240530264 4548.0
52.245454120 4698.0
52.250377977 4820.0
52.255301833 5086.0
52.260225689 5139.0
52.265149545 5259.0
52.270073401 5258.0
52.274997257 5290.0
52.279921113 5118.0
52.284844969 5232.0
52.289768825 5156.0
52.294692681 5234.0
52.299616537 4980.0
52.304540393 5172.0
52.309464249 5016.0
52.314388105 4923.0
52.319311961 5069.0
52.324235817 4984.0
52.329159673 5150.0
52.334083529 5166.0
52.339007385 5484.0
52.343931241 5635.0
52.348855097 5722.0
52.353778953 6100.0
52.358702809 6262.0
52.363626665 6672.0
52.368550521 7172.0
52.373474377 7636.0
52.378398233 8232.0
52.383322089 8860.0
52.388245945 9504.0
52.393169801 10680.0
52.398093657 11482.0
52.403017513 12779.0
52.407941369 14332.0
52.412865225 16099.0
52.417789081 18194.0
52.422712937 21340.0
52.427636793 24758.0
52.432560649 29684.0
52.437484505 35752.0
52.442408361 44621.0
52.447332217 57210.0
52.452256073 77697.0
52.457179929 109006.0
52.462103785 161414.0
52.467027641 228946.0
52.471951497 301648.0
52.476875353 356453.0
52.481799209 392201.0
52.486723065 412938.0
52.491646921 428444.0
52.496570777 435347.0
52.501494633 437837.0
52.506418489 432189.0
52.511342345 413200.0
52.516266201 381471.0
52.521190057 321451.0
52.526113913 250280.0
52.531037769 178694.0
52.535961625 129623.0
52.540885481 95073.0
52.545809337 73814.0
52.550733193 57081.0
52.555657049 46908.0
52.560580905 39834.0
52.565504761 36097.0
52.570428617 33709.0
52.575352473 33961.0
52.580276329 35468.0
52.585200185 39621.0
52.590124041 46272.0
52.595047897 58685.0
52.599971753 77299.0
52.604895609 105948.0
52.609819465 135530.0
52.614743321 165869.0
52.619667177 187820.0
52.624591033 204795.0
52.629514889 213939.0
52.634438745 219365.0
52.639362601 220048.0
52.644286457 217723.0
52.649210313 211178.0
52.654134169 196878.0
52.659058025 176284.0
52.663981881 144179.0
52.668905737 114152.0
52.673829593 83680.0
52.678753449 61946.0
52.683677305 45672.0
52.688601161 35009.0
52.693525017 27509.0
52.698448873 22354.0
52.703372729 18408.0
52.708296585 15702.0
52.713220441 13529.0
52.718144297 11743.0
52.723068153 10559.0
52.727992009 9578.0
52.732915865 8651.0
52.737839721 7814.0
52.742763577 7411.0
52.747687433 6883.0
52.752611290 6469.0
52.757535146 6121.0
52.762459002 5805.0
52.767382858 5429.0
52.772306714 5249.0
52.777230570 4844.0
52.782154426 4725.0
52.787078282 4336.0
52.792002138 4259.0
52.796925994 4184.0
52.801849850 3905.0
52.806773706 3661.0
52.811697562 3671.0
52.816621418 3417.0
52.821545274 3358.0
52.826469130 3164.0
52.831392986 3042.0
52.836316842 2986.0
52.841240698 3061.0
52.846164554 2910.0
52.851088410 2735.0
52.856012266 2702.0
52.860936122 2608.0
52.865859978 2482.0
52.870783834 2398.0
52.875707690 2344.0
52.880631546 2447.0
52.885555402 2227.0
52.890479258 2218.0
52.895403114 2122.0
52.900326970 2173.0
52.905250826 2057.0
52.910174682 1910.0
52.915098538 2016.0
52.920022394 1962.0
52.924946250 1877.0
52.929870106 1805.0
52.934793962 1753.0
52.939717818 1723.0
52.944641674 1742.0
52.949565530 1604.0
52.954489386 1569.0
52.959413242 1595.0
52.964337098 1616.0
52.969260954 1545.0
52.974184810 1495.0
52.979108666 1414.0
52.984032522 1483.0
52.988956378 1369.0
52.993880234 1391.0
52.998804090 1343.0
53.003727946 1344.0
53.008651802 1288.0
53.013575658 1304.0
53.018499514 1269.0
53.023423370 1246.0
53.028347226 1167.0
53.033271082 1152.0
53.038194938 1174.0
53.043118794 1105.0
53.048042650 1157.0
53.052966506 1115.0
53.057890362 1112.0
53.062814218 1071.0
53.067738074 1076.0
53.072661930 1037.0
53.077585786 1060.0
53.082509642 1029.0
53.087433498 1013.0
53.092357354 925.0
53.097281210 984.0
53.102205066 930.0
53.107128922 985.0
53.112052778 948.0
53.116976634 868.0
53.121900490 880.0
53.126824346 896.0
53.131748202 887.0
53.136672058 877.0
53.141595914 893.0
53.146519770 815.0
53.151443626 841.0
53.156367482 848.0
53.161291338 822.0
53.166215194 828.0
53.171139050 827.0
53.176062906 808.0
53.180986762 784.0
53.185910618 772.0
53.190834474 704.0
53.195758330 725.0
53.200682186 776.0
53.205606042 755.0
53.210529898 765.0
53.215453754 693.0
53.220377610 793.0
53.225301466 713.0
53.230225322 759.0
53.235149178 684.0
53.240073034 669.0
53.244996890 700.0
53.249920747 709.0
53.254844603 638.0
53.259768459 640.0
53.264692315 728.0
53.269616171 643.0
53.274540027 653.0
53.279463883 636.0
53.284387739 608.0
53.289311595 615.0
53.294235451 609.0
53.299159307 575.0
53.304083163 571.0
53.309007019 595.0
53.313930875 598.0
53.318854731 606.0
53.323778587 613.0
53.328702443 541.0
53.333626299 573.0
53.338550155 591.0
53.343474011 540.0
53.348397867 530.0
53.353321723 531.0
53.358245579 545.0
53.363169435 548.0
53.368093291 546.0
53.373017147 553.0
53.377941003 555.0
53.382864859 527.0
53.387788715 506.0
53.392712571 524.0
53.397636427 482.0
53.402560283 486.0
53.407484139 429.0
53.412407995 481.0
53.417331851 456.0
53.422255707 455.0
53.427179563 456.0
53.432103419 484.0
53.437027275 475.0
53.441951131 435.0
53.446874987 482.0
53.451798843 440.0
53.456722699 433.0
53.461646555 417.0
53.466570411 400.0
53.471494267 451.0
53.476418123 411.0
53.481341979 426.0
53.486265835 393.0
53.491189691 398.0
53.496113547 363.0
53.501037403 414.0
53.505961259 394.0
53.510885115 392.0
53.515808971 385.0
53.520732827 386.0
53.525656683 363.0
53.530580539 419.0
53.535504395 403.0
53.540428251 395.0
53.545352107 365.0
53.550275963 383.0
53.555199819 352.0
53.560123675 338.0
53.565047531 362.0
53.569971387 354.0
53.574895243 360.0
53.579819099 310.0
53.584742955 343.0
53.589666811 338.0
53.594590667 358.0
53.599514523 354.0
53.604438379 324.0
53.609362235 319.0
53.614286091 307.0
53.619209947 315.0
53.624133803 293.0
53.629057659 334.0
53.633981515 312.0
53.638905371 305.0
53.643829227 289.0
53.648753083 293.0
53.653676939 295.0
53.658600795 314.0
53.663524651 341.0
53.668448507 293.0
53.673372363 282.0
53.678296219 291.0
53.683220075 289.0
53.688143931 286.0
53.693067787 283.0
53.697991643 286.0
53.702915499 270.0
53.707839355 278.0
53.712763211 264.0
53.717687067 259.0
53.722610923 235.0
53.727534779 261.0
53.732458635 282.0
53.737382491 227.0
53.742306347 229.0
53.747230203 281.0
53.752154060 259.0
53.757077916 284.0
53.762001772 265.0
53.766925628 226.0
53.771849484 273.0
53.776773340 258.0
53.781697196 226.0
53.786621052 217.0
53.791544908 229.0
53.796468764 201.0
53.801392620 212.0
53.806316476 219.0
53.811240332 212.0
53.816164188 215.0
53.821088044 192.0
53.826011900 231.0
53.830935756 203.0
53.835859612 255.0
53.840783468 216.0
53.845707324 227.0
53.850631180 220.0
53.855555036 210.0
53.860478892 225.0
53.865402748 259.0
53.870326604 217.0
53.875250460 181.0
53.880174316 183.0
53.885098172 226.0
53.890022028 195.0
53.894945884 184.0
53.899869740 182.0
53.904793596 206.0
53.909717452 194.0
53.914641308 161.0
53.919565164 203.0
53.924489020 177.0
53.929412876 167.0
53.934336732 177.0
53.939260588 212.0
53.944184444 198.0
53.949108300 200.0
53.954032156 211.0
53.958956012 193.0
53.963879868 186.0
53.968803724 180.0
53.973727580 165.0
53.978651436 196.0
53.983575292 173.0
53.988499148 188.0
53.993423004 187.0
53.998346860 166.0
54.003270716 193.0
54.008194572 180.0
54.013118428 184.0
54.018042284 172.0
54.022966140 176.0
54.027889996 155.0
54.032813852 185.0
54.037737708 190.0
54.042661564 171.0
54.047585420 170.0
54.052509276 178.0
54.057433132 194.0
54.062356988 179.0
54.067280844 164.0
54.072204700 170.0
54.077128556 195.0
54.082052412 183.0
54.086976268 185.0
54.091900124 159.0
54.096823980 184.0
54.101747836 132.0
54.106671692 160.0
54.111595548 175.0
54.116519404 163.0
54.121443260 183.0
54.126367116 170.0
54.131290972 179.0
54.136214828 180.0
54.141138684 166.0
54.146062540 184.0
54.150986396 169.0
54.155910252 176.0
54.160834108 168.0
54.165757964 163.0
54.170681820 161.0
54.175605676 170.0
54.180529532 166.0
54.185453388 189.0
54.190377244 159.0
54.195301100 159.0
54.200224956 152.0
54.205148812 169.0
54.210072668 165.0
54.214996524 179.0
54.219920380 186.0
54.224844236 185.0
54.229768092 158.0
54.234691948 173.0
54.239615804 175.0
54.244539660 193.0
54.249463517 170.0
54.254387373 167.0
54.259311229 160.0
54.264235085 156.0
54.269158941 166.0
54.274082797 149.0
54.279006653 157.0
54.283930509 182.0
54.288854365 163.0
54.293778221 151.0
54.298702077 157.0
54.303625933 147.0
54.308549789 158.0
54.313473645 162.0
54.318397501 161.0
54.323321357 166.0
54.328245213 159.0
54.333169069 144.0
54.338092925 145.0
54.343016781 124.0
54.347940637 124.0
54.352864493 146.0
54.357788349 123.0
54.362712205 173.0
54.367636061 153.0
54.372559917 146.0
54.377483773 151.0
54.382407629 147.0
54.387331485 146.0
54.392255341 136.0
54.397179197 158.0
54.402103053 156.0
54.407026909 141.0
54.411950765 149.0
54.416874621 152.0
54.421798477 157.0
54.426722333 155.0
54.431646189 134.0
54.436570045 182.0
54.441493901 166.0
54.446417757 150.0
54.451341613 146.0
54.456265469 161.0
54.461189325 150.0
54.466113181 149.0
54.471037037 162.0
54.475960893 154.0
54.480884749 144.0
54.485808605 169.0
54.490732461 151.0
54.495656317 149.0
54.500580173 152.0
54.505504029 136.0
54.510427885 135.0
54.515351741 122.0
54.520275597 153.0
54.525199453 158.0
54.530123309 170.0
54.535047165 128.0
54.539971021 143.0
54.544894877 145.0
54.549818733 143.0
54.554742589 137.0
54.559666445 164.0
54.564590301 142.0
54.569514157 152.0
54.574438013 150.0
54.579361869 148.0
54.584285725 142.0
54.589209581 138.0
54.594133437 122.0
54.599057293 152.0
54.603981149 145.0
54.608905005 144.0
54.613828861 141.0
54.618752717 139.0
54.623676573 144.0
54.628600429 130.0
54.633524285 150.0
54.638448141 142.0
54.643371997 127.0
54.648295853 127.0
54.653219709 142.0
54.658143565 149.0
54.663067421 142.0
54.667991277 150.0
54.672915133 144.0
54.677838989 141.0
54.682762845 121.0
54.687686701 138.0
54.692610557 153.0
54.697534413 137.0
54.702458269 135.0
54.707382125 141.0
54.712305981 146.0
54.717229837 155.0
54.722153693 131.0
54.727077549 141.0
54.732001405 151.0
54.736925261 164.0
54.741849117 146.0
54.746772973 113.0
54.751696830 147.0
54.756620686 142.0
54.761544542 121.0
54.766468398 147.0
54.771392254 123.0
54.776316110 118.0
54.781239966 129.0
54.786163822 121.0
54.791087678 132.0
54.796011534 125.0
54.800935390 129.0
54.805859246 142.0
54.810783102 137.0
54.815706958 144.0
54.820630814 103.0
54.825554670 135.0
54.830478526 143.0
54.835402382 121.0
54.840326238 127.0
54.845250094 126.0
54.850173950 149.0
54.855097806 147.0
54.860021662 134.0
54.864945518 127.0
54.869869374 126.0
54.874793230 137.0
54.879717086 120.0
54.884640942 143.0
54.889564798 123.0
54.894488654 138.0
54.899412510 131.0
54.904336366 137.0
54.909260222 115.0
54.914184078 158.0
54.919107934 158.0
54.924031790 138.0
54.928955646 119.0
54.933879502 129.0
54.938803358 126.0
54.943727214 135.0
54.948651070 138.0
54.953574926 121.0
54.958498782 121.0
54.963422638 116.0
54.968346494 118.0
54.973270350 136.0
54.978194206 119.0
54.983118062 124.0
54.988041918 155.0
54.992965774 132.0
54.997889630 121.0
