55.001861930 106.0
55.006785786 115.0
55.011709642 126.0
55.016633498 114.0
55.021557354 153.0
55.026481210 125.0
55.031405066 106.0
55.036328922 133.0
55.041252778 111.0
55.046176634 121.0
55.051100490 106.0
55.056024346 101.0
55.060948202 102.0
55.065872058 123.0
55.070795914 112.0
55.075719770 112.0
55.080643626 122.0
55.085567482 111.0
55.090491338 108.0
55.095415194 111.0
55.100339050 118.0
55.105262906 107.0
55.110186762 106.0
55.115110618 126.0
55.120034474 90.0
55.124958330 122.0
55.129882186 142.0
55.134806042 139.0
55.139729898 125.0
55.144653754 99.0
55.149577610 114.0
55.154501466 92.0
55.159425322 105.0
55.164349178 91.0
55.169273034 97.0
55.174196890 119.0
55.179120746 141.0
55.184044602 111.0
55.188968459 113.0
55.193892315 125.0
55.198816171 110.0
55.203740027 107.0
55.208663883 105.0
55.213587739 126.0
55.218511595 97.0
55.223435451 123.0
55.228359307 121.0
55.233283163 118.0
55.238207019 107.0
55.243130875 120.0
55.248054731 110.0
55.252978587 118.0
55.257902443 121.0
55.262826299 134.0
55.267750155 103.0
55.272674011 92.0
55.277597867 105.0
55.282521723 102.0
55.287445579 100.0
55.292369435 134.0
55.297293291 127.0
55.302217147 152.0
55.307141003 106.0
55.312064859 113.0
55.316988715 120.0
55.321912571 107.0
55.326836427 125.0
55.331760283 120.0
55.336684139 133.0
55.341607995 121.0
55.346531851 116.0
55.351455707 98.0
55.356379563 116.0
55.361303419 113.0
55.366227275 110.0
55.371151131 137.0
55.376074987 140.0
55.380998843 123.0
55.385922699 117.0
55.390846555 117.0
55.395770411 119.0
55.400694267 119.0
55.405618123 108.0
55.410541979 138.0
55.415465835 120.0
55.420389691 116.0
55.425313547 122.0
55.430237403 119.0
55.435161259 121.0
55.440085115 105.0
55.445008971 133.0
55.449932827 114.0
55.454856683 107.0
55.459780539 118.0
55.464704395 111.0
55.469628251 115.0
55.474552107 130.0
55.479475963 109.0
55.484399819 111.0
55.489323675 114.0
55.494247531 109.0
55.499171387 108.0
55.504095243 109.0
55.509019099 102.0
55.513942955 111.0
55.518866811 118.0
55.523790667 125.0
55.528714523 105.0
55.533638379 107.0
55.538562235 115.0
55.543486091 117.0
55.548409947 128.0
55.553333803 142.0
55.558257660 121.0
55.563181516 109.0
55.568105372 134.0
55.573029228 114.0
55.577953084 126.0
55.582876940 108.0
55.587800796 118.0
55.592724652 107.0
55.597648508 138.0
55.602572364 115.0
55.607496220 119.0
55.612420076 116.0
55.617343932 104.0
55.622267788 106.0
55.627191644 117.0
55.632115500 115.0
55.637039356 118.0
55.641963212 111.0
55.646887068 120.0
55.651810924 122.0
55.656734780 105.0
55.661658636 103.0
55.666582492 116.0
55.671506348 105.0
55.676430204 115.0
55.681354060 108.0
55.686277916 124.0
55.691201772 112.0
55.696125628 114.0
55.701049484 103.0
55.705973340 92.0
55.710897196 128.0
55.715821052 115.0
55.720744908 106.0
55.725668764 97.0
55.730592620 104.0
55.735516476 109.0
55.740440332 115.0
55.745364188 100.0
55.750288044 117.0
55.755211900 112.0
55.760135756 115.0
55.765059612 108.0
55.769983468 116.0
55.774907324 121.0
55.779831180 114.0
55.784755036 104.0
55.789678892 141.0
55.794602748 116.0
55.799526604 97.0
55.804450460 136.0
55.809374316 112.0
55.814298172 105.0
55.819222028 107.0
55.824145884 109.0
55.829069740 96.0
55.833993596 128.0
55.838917452 128.0
55.843841308 97.0
55.848765164 113.0
55.853689020 102.0
55.858612876 122.0
55.863536732 103.0
55.868460588 130.0
55.873384444 131.0
55.878308300 109.0
55.883232156 118.0
55.888156012 126.0
55.893079868 112.0
55.898003724 118.0
55.902927580 128.0
55.907851436 116.0
55.912775292 119.0
55.917699148 122.0
55.922623004 95.0
55.927546860 102.0
55.932470717 112.0
55.937394573 122.0
55.942318429 124.0
55.947242285 117.0
55.952166141 115.0
55.957089997 92.0
55.962013853 105.0
55.966937709 127.0
55.971861565 129.0
55.976785421 124.0
55.981709277 126.0
55.986633133 117.0
55.991556989 111.0
55.996480845 99.0
56.001404701 133.0
56.006328557 125.0
56.011252413 113.0
56.016176269 107.0
56.021100125 90.0
56.026023981 107.0
56.030947837 125.0
56.035871693 111.0
56.040795549 130.0
56.045719405 133.0
56.050643261 118.0
56.055567117 126.0
56.060490973 115.0
56.065414829 96.0
56.070338685 116.0
56.075262541 99.0
56.080186397 117.0
56.085110253 97.0
56.090034109 119.0
56.094957965 120.0
56.099881821 103.0
56.104805677 120.0
56.109729533 127.0
56.114653389 100.0
56.119577245 127.0
56.124501101 113.0
56.129424957 113.0
56.134348813 116.0
56.139272669 106.0
56.144196525 122.0
56.149120381 111.0
56.154044237 100.0
56.158968093 122.0
56.163891949 112.0
56.168815805 103.0
56.173739661 116.0
56.178663517 112.0
56.183587373 118.0
56.188511229 128.0
56.193435085 121.0
56.198358941 109.0
56.203282797 110.0
56.208206653 109.0
56.213130509 108.0
56.218054365 118.0
56.222978221 115.0
56.227902077 121.0
56.232825933 114.0
56.237749789 141.0
56.242673645 119.0
56.247597501 110.0
56.252521357 116.0
56.257445213 120.0
56.262369069 123.0
56.267292925 116.0
56.272216781 130.0
56.277140637 119.0
56.282064493 124.0
56.286988349 115.0
56.291912205 115.0
56.296836061 133.0
56.301759918 134.0
56.306683774 119.0
56.311607630 117.0
56.316531486 97.0
56.321455342 126.0
56.326379198 99.0
56.331303054 119.0
56.336226910 114.0
56.341150766 141.0
56.346074622 98.0
56.350998478 101.0
56.355922334 108.0
56.360846190 114.0
56.365770046 138.0
56.370693902 129.0
56.375617758 121.0
56.380541614 101.0
56.385465470 102.0
56.390389326 119.0
56.395313182 112.0
56.400237038 123.0
56.405160894 113.0
56.410084750 130.0
56.415008606 123.0
56.419932462 110.0
56.424856318 138.0
56.429780174 109.0
56.434704030 121.0
56.439627886 128.0
56.444551742 111.0
56.449475598 106.0
56.454399454 122.0
56.459323310 111.0
56.464247166 96.0
56.469171022 138.0
56.474094878 102.0
56.479018734 128.0
56.483942590 107.0
56.488866446 120.0
56.493790302 120.0
56.498714158 106.0
56.503638014 110.0
56.508561870 114.0
56.513485726 130.0
56.518409582 104.0
56.523333438 120.0
56.528257294 121.0
56.533181150 130.0
56.538105006 103.0
56.543028862 108.0
56.547952718 122.0
56.552876574 129.0
56.557800430 131.0
56.562724286 117.0
56.567648142 113.0
56.572571998 114.0
56.577495854 93.0
56.582419710 110.0
56.587343566 120.0
56.592267422 130.0
56.597191278 124.0
56.602115134 121.0
56.607038990 122.0
56.611962846 106.0
56.616886702 105.0
56.621810558 116.0
56.626734414 123.0
56.631658270 139.0
56.636582126 101.0
56.641505982 116.0
56.646429838 119.0
56.651353694 133.0
56.656277550 115.0
56.661201406 115.0
56.666125262 123.0
56.671049119 121.0
56.675972975 111.0
56.680896831 113.0
56.685820687 130.0
56.690744543 123.0
56.695668399 131.0
56.700592255 127.0
56.705516111 121.0
56.710439967 117.0
56.715363823 95.0
56.720287679 130.0
56.725211535 120.0
56.730135391 113.0
56.735059247 111.0
56.739983103 120.0
56.744906959 105.0
56.749830815 123.0
56.754754671 101.0
56.759678527 125.0
56.764602383 129.0
56.769526239 114.0
56.774450095 99.0
56.779373951 128.0
56.784297807 122.0
56.789221663 120.0
56.794145519 102.0
56.799069375 101.0
56.803993231 143.0
56.808917087 124.0
56.813840943 127.0
56.818764799 99.0
56.823688655 123.0
56.828612511 131.0
56.833536367 137.0
56.838460223 129.0
56.843384079 115.0
56.848307935 109.0
56.853231791 127.0
56.858155647 126.0
56.863079503 115.0
56.868003359 106.0
56.872927215 126.0
56.877851071 130.0
56.882774927 121.0
56.887698783 132.0
56.892622639 108.0
56.897546495 119.0
56.902470351 133.0
56.907394207 120.0
56.912318063 110.0
56.917241919 124.0
56.922165775 131.0
56.927089631 114.0
56.932013487 134.0
56.936937343 108.0
56.941861199 108.0
56.946785055 111.0
56.951708911 120.0
56.956632767 122.0
56.961556623 114.0
56.966480479 110.0
56.971404335 132.0
56.976328191 126.0
56.981252047 108.0
56.986175903 109.0
56.991099759 115.0
56.996023615 130.0
57.000947471 107.0
57.005871327 143.0
57.010795183 131.0
57.015719039 96.0
57.020642895 116.0
57.025566751 128.0
57.030490607 117.0
57.035414463 112.0
57.040338320 120.0
57.045262176 102.0
57.050186032 116.0
57.055109888 118.0
57.060033744 113.0
57.064957600 119.0
57.069881456 136.0
57.074805312 123.0
57.079729168 101.0
57.084653024 111.0
57.089576880 118.0
57.094500736 90.0
57.099424592 116.0
57.104348448 103.0
57.109272304 124.0
57.114196160 144.0
57.119120016 121.0
57.124043872 112.0
57.128967728 113.0
57.133891584 121.0
57.138815440 116.0
57.143739296 117.0
57.148663152 126.0
57.153587008 117.0
57.158510864 114.0
57.163434720 118.0
57.168358576 124.0
57.173282432 113.0
57.178206288 129.0
57.183130144 102.0
57.188054000 114.0
57.192977856 131.0
57.197901712 126.0
57.202825568 136.0
57.207749424 128.0
57.212673280 113.0
57.217597136 101.0
57.222520992 108.0
57.227444848 127.0
57.232368704 118.0
57.237292560 136.0
57.242216416 124.0
57.247140272 129.0
57.252064128 131.0
57.256987984 119.0
57.261911840 139.0
57.266835696 119.0
57.271759552 123.0
57.276683408 105.0
57.281607264 130.0
57.286531120 114.0
57.291454976 118.0
57.296378832 109.0
57.301302688 113.0
57.306226544 111.0
57.311150400 123.0
57.316074256 101.0
57.320998112 130.0
57.325921968 142.0
57.330845824 116.0
57.335769680 119.0
57.340693536 116.0
57.345617392 122.0
57.350541248 114.0
57.355465104 125.0
57.360388960 117.0
57.365312816 107.0
57.370236672 122.0
57.375160528 118.0
57.380084384 121.0
57.385008240 125.0
57.389932096 122.0
57.394855952 110.0
57.399779808 109.0
57.404703664 122.0
57.409627521 115.0
57.414551377 119.0
57.419475233 131.0
57.424399089 130.0
57.429322945 125.0
57.434246801 112.0
57.439170657 125.0
57.444094513 122.0
57.449018369 124.0
57.453942225 119.0
57.458866081 125.0
57.463789937 113.0
57.468713793 106.0
57.473637649 123.0
57.478561505 116.0
57.483485361 122.0
57.488409217 110.0
57.493333073 130.0
57.498256929 117.0
57.503180785 115.0
57.508104641 111.0
57.513028497 118.0
57.517952353 114.0
57.522876209 129.0
57.527800065 120.0
57.532723921 118.0
57.537647777 119.0
57.542571633 102.0
57.547495489 136.0
57.552419345 128.0
57.557343201 136.0
57.562267057 150.0
57.567190913 113.0
57.572114769 128.0
57.577038625 113.0
57.581962481 141.0
57.586886337 112.0
57.591810193 135.0
57.596734049 123.0
57.601657905 144.0
57.606581761 134.0
57.611505617 118.0
57.616429473 119.0
57.621353329 120.0
57.626277185 138.0
57.631201041 162.0
57.636124897 136.0
57.641048753 120.0
57.645972609 123.0
57.650896465 144.0
57.655820321 150.0
57.660744177 123.0
57.665668033 149.0
57.670591889 132.0
57.675515745 148.0
57.680439601 124.0
57.685363457 154.0
57.690287313 128.0
57.695211169 134.0
57.700135025 162.0
57.705058881 156.0
57.709982737 108.0
57.714906593 131.0
57.719830449 134.0
57.724754305 140.0
57.729678161 116.0
57.734602017 116.0
57.739525873 146.0
57.744449729 139.0
57.749373585 125.0
57.754297441 129.0
57.759221297 134.0
57.764145153 118.0
57.769069009 156.0
57.773992865 131.0
57.778916721 144.0
57.783840578 111.0
57.788764434 144.0
57.793688290 141.0
57.798612146 135.0
57.803536002 121.0
57.808459858 131.0
57.813383714 136.0
57.818307570 130.0
57.823231426 133.0
57.828155282 131.0
57.833079138 130.0
57.838002994 124.0
57.842926850 130.0
57.847850706 154.0
57.852774562 123.0
57.857698418 142.0
57.862622274 128.0
57.867546130 109.0
57.872469986 130.0
57.877393842 120.0
57.882317698 142.0
57.887241554 124.0
57.892165410 141.0
57.897089266 147.0
57.902013122 135.0
57.906936978 130.0
57.911860834 119.0
57.916784690 112.0
57.921708546 122.0
57.926632402 130.0
57.931556258 140.0
57.936480114 122.0
57.941403970 130.0
57.946327826 147.0
57.951251682 133.0
57.956175538 128.0
57.961099394 139.0
57.966023250 131.0
57.970947106 116.0
57.975870962 122.0
57.980794818 124.0
57.985718674 112.0
57.990642530 120.0
57.995566386 124.0
58.000490242 125.0
58.005414098 127.0
58.010337954 130.0
58.015261810 109.0
58.020185666 119.0
58.025109522 112.0
58.030033378 140.0
58.034957234 123.0
58.039881090 123.0
58.044804946 108.0
58.049728802 130.0
58.054652658 122.0
58.059576514 115.0
58.064500370 117.0
58.069424226 128.0
58.074348082 137.0
58.079271938 118.0
58.084195794 114.0
58.089119650 113.0
58.094043506 139.0
58.098967362 114.0
58.103891218 122.0
58.108815074 111.0
58.113738930 116.0
58.118662786 120.0
58.123586642 99.0
58.128510498 138.0
58.133434354 103.0
58.138358210 108.0
58.143282066 112.0
58.148205922 116.0
58.153129779 114.0
58.158053635 130.0
58.162977491 123.0
58.167901347 129.0
58.172825203 142.0
58.177749059 133.0
58.182672915 109.0
58.187596771 106.0
58.192520627 110.0
58.197444483 127.0
58.202368339 98.0
58.207292195 120.0
58.212216051 118.0
58.217139907 106.0
58.222063763 131.0
58.226987619 110.0
58.231911475 127.0
58.236835331 133.0
58.241759187 116.0
58.246683043 113.0
58.251606899 108.0
58.256530755 103.0
58.261454611 118.0
58.266378467 111.0
58.271302323 114.0
58.276226179 112.0
58.281150035 118.0
58.286073891 138.0
58.290997747 117.0
58.295921603 127.0
58.300845459 125.0
58.305769315 125.0
58.310693171 116.0
58.315617027 113.0
58.320540883 143.0
58.325464739 120.0
58.330388595 123.0
58.335312451 105.0
58.340236307 113.0
58.345160163 129.0
58.350084019 114.0
58.355007875 141.0
58.359931731 117.0
58.364855587 112.0
58.369779443 115.0
58.374703299 131.0
58.379627155 102.0
58.384551011 106.0
58.389474867 117.0
58.394398723 112.0
58.399322579 115.0
58.404246435 130.0
58.409170291 101.0
58.414094147 116.0
58.419018003 139.0
58.423941859 120.0
58.428865715 122.0
58.433789571 111.0
58.438713427 120.0
58.443637283 116.0
58.448561139 126.0
58.453484995 113.0
58.458408851 105.0
58.463332707 106.0
58.468256563 104.0
58.473180419 131.0
58.478104275 130.0
58.483028131 113.0
58.487951987 136.0
58.492875843 113.0
58.497799699 145.0
58.502723555 113.0
58.507647411 107.0
58.512571267 108.0
58.517495123 123.0
58.522418980 127.0
58.527342836 124.0
58.532266692 125.0
58.537190548 123.0
58.542114404 110.0
58.547038260 118.0
58.551962116 104.0
58.556885972 108.0
58.561809828 93.0
58.566733684 125.0
58.571657540 110.0
58.576581396 113.0
58.581505252 119.0
58.586429108 126.0
58.591352964 103.0
58.596276820 135.0
58.601200676 121.0
58.606124532 110.0
58.611048388 103.0
58.615972244 124.0
58.620896100 117.0
58.625819956 120.0
58.630743812 110.0
58.635667668 119.0
58.640591524 129.0
58.645515380 129.0
58.650439236 95.0
58.655363092 125.0
58.660286948 115.0
58.665210804 115.0
58.670134660 147.0
58.675058516 145.0
58.679982372 122.0
58.684906228 123.0
58.689830084 108.0
58.694753940 104.0
58.699677796 114.0
58.704601652 116.0
58.709525508 126.0
58.714449364 126.0
58.719373220 115.0
58.724297076 125.0
58.729220932 143.0
58.734144788 122.0
58.739068644 120.0
58.743992500 116.0
58.748916356 121.0
58.753840212 129.0
58.758764068 122.0
58.763687924 113.0
58.768611780 107.0
58.773535636 128.0
58.778459492 119.0
58.783383348 108.0
58.788307204 91.0
58.793231060 107.0
58.798154916 138.0
58.803078772 100.0
58.808002628 110.0
58.812926484 118.0
58.817850340 111.0
58.822774196 111.0
58.827698052 113.0
58.832621908 118.0
58.837545764 119.0
58.842469620 120.0
58.847393476 119.0
58.852317332 103.0
58.857241188 117.0
58.862165044 114.0
58.867088900 134.0
58.872012756 102.0
58.876936612 122.0
58.881860468 114.0
58.886784324 114.0
58.891708181 128.0
58.896632037 115.0
58.901555893 109.0
58.906479749 98.0
58.911403605 111.0
58.916327461 142.0
58.921251317 127.0
58.926175173 150.0
58.931099029 120.0
58.936022885 124.0
58.940946741 108.0
58.945870597 120.0
58.950794453 88.0
58.955718309 109.0
58.960642165 108.0
58.965566021 117.0
58.970489877 123.0
58.975413733 145.0
58.980337589 108.0
58.985261445 132.0
58.990185301 117.0
58.995109157 116.0
59.000033013 115.0
59.004956869 120.0
59.009880725 128.0
59.014804581 120.0
59.019728437 133.0
59.024652293 117.0
59.029576149 129.0
59.034500005 114.0
59.039423861 107.0
59.044347717 91.0
59.049271573 126.0
59.054195429 121.0
59.059119285 114.0
59.064043141 107.0
59.068966997 112.0
59.073890853 127.0
59.078814709 127.0
59.083738565 119.0
59.088662421 114.0
59.093586277 125.0
59.098510133 120.0
59.103433989 105.0
59.108357845 133.0
59.113281701 130.0
59.118205557 119.0
59.123129413 130.0
59.128053269 132.0
59.132977125 129.0
59.137900981 117.0
59.142824837 103.0
59.147748693 115.0
59.152672549 125.0
59.157596405 103.0
59.162520261 119.0
59.167444117 139.0
59.172367973 101.0
59.177291829 125.0
59.182215685 114.0
59.187139541 116.0
59.192063397 111.0
59.196987253 130.0
59.201911109 143.0
59.206834965 96.0
59.211758821 133.0
59.216682677 128.0
59.221606533 127.0
59.226530389 123.0
59.231454245 113.0
59.236378101 119.0
59.241301957 109.0
59.246225813 121.0
59.251149669 110.0
59.256073525 119.0
59.260997382 107.0
59.265921238 123.0
59.270845094 131.0
59.275768950 130.0
59.280692806 140.0
59.285616662 96.0
59.290540518 129.0
59.295464374 112.0
59.300388230 101.0
59.305312086 104.0
59.310235942 132.0
59.315159798 116.0
59.320083654 124.0
59.325007510 112.0
59.329931366 107.0
59.334855222 120.0
59.339779078 126.0
59.344702934 123.0
59.349626790 112.0
59.354550646 142.0
59.359474502 107.0
59.364398358 110.0
59.369322214 136.0
59.374246070 114.0
59.379169926 107.0
59.384093782 132.0
59.389017638 118.0
59.393941494 103.0
59.398865350 129.0
59.403789206 124.0
59.408713062 118.0
59.413636918 112.0
59.418560774 89.0
59.423484630 128.0
59.428408486 117.0
59.433332342 108.0
59.438256198 117.0
59.443180054 121.0
59.448103910 95.0
59.453027766 131.0
59.457951622 116.0
59.462875478 113.0
59.467799334 119.0
59.472723190 111.0
59.477647046 103.0
59.482570902 129.0
59.487494758 137.0
59.492418614 123.0
59.497342470 105.0
59.502266326 124.0
59.507190182 131.0
59.512114038 99.0
59.517037894 106.0
59.521961750 110.0
59.526885606 132.0
59.531809462 130.0
59.536733318 104.0
59.541657174 110.0
59.546581030 118.0
59.551504886 107.0
59.556428742 110.0
59.561352598 117.0
59.566276454 107.0
59.571200310 130.0
59.576124166 104.0
59.581048022 112.0
59.585971878 146.0
59.590895734 129.0
59.595819590 130.0
59.600743446 123.0
59.605667302 109.0
59.610591158 130.0
59.615515014 107.0
59.620438870 129.0
59.625362726 117.0
59.630286582 116.0
59.635210439 129.0
59.640134295 107.0
59.645058151 113.0
59.649982007 113.0
59.654905863 122.0
59.659829719 137.0
59.664753575 128.0
59.669677431 127.0
59.674601287 133.0
59.679525143 115.0
59.684448999 116.0
59.689372855 146.0
59.694296711 130.0
59.699220567 117.0
59.704144423 117.0
59.709068279 121.0
59.713992135 110.0
59.718915991 108.0
59.723839847 124.0
59.728763703 108.0
59.733687559 110.0
59.738611415 113.0
59.743535271 104.0
59.748459127 118.0
59.753382983 113.0
59.758306839 121.0
59.763230695 116.0
59.768154551 112.0
59.773078407 128.0
59.778002263 107.0
59.782926119 127.0
59.787849975 126.0
59.792773831 126.0
59.797697687 119.0
59.802621543 116.0
59.807545399 106.0
59.812469255 99.0
59.817393111 122.0
59.822316967 97.0
59.827240823 129.0
59.832164679 110.0
59.837088535 113.0
59.842012391 108.0
59.846936247 106.0
59.851860103 115.0
59.856783959 120.0
59.861707815 128.0
59.866631671 116.0
59.871555527 125.0
59.876479383 130.0
59.881403239 107.0
59.886327095 121.0
59.891250951 128.0
59.896174807 108.0
59.901098663 108.0
59.906022519 113.0
59.910946375 129.0
59.915870231 127.0
59.920794087 122.0
59.925717943 117.0
59.930641799 127.0
59.935565655 117.0
59.940489511 139.0
59.945413367 129.0
59.950337223 143.0
59.955261079 110.0
59.960184935 126.0
59.965108791 107.0
59.970032647 128.0
59.974956503 126.0
59.979880359 103.0
59.984804215 124.0
59.989728071 124.0
59.994651927 121.0
59.999575783 124.0
60.004499640 118.0
60.009423496 120.0
60.014347352 113.0
60.019271208 110.0
60.024195064 128.0
60.029118920 113.0
60.034042776 120.0
60.038966632 101.0
60.043890488 122.0
60.048814344 121.0
60.053738200 131.0
60.058662056 122.0
60.063585912 129.0
60.068509768 109.0
60.073433624 108.0
60.078357480 155.0
60.083281336 110.0
60.088205192 122.0
60.093129048 132.0
60.098052904 122.0
60.102976760 123.0
60.107900616 112.0
60.112824472 132.0
60.117748328 117.0
60.122672184 119.0
60.127596040 133.0
60.132519896 127.0
60.137443752 116.0
60.142367608 105.0
60.147291464 110.0
60.152215320 129.0
60.157139176 133.0
60.162063032 113.0
60.166986888 107.0
60.171910744 111.0
60.176834600 119.0
60.181758456 135.0
60.186682312 92.0
60.191606168 108.0
60.196530024 124.0
60.201453880 109.0
60.206377736 130.0
60.211301592 120.0
60.216225448 126.0
60.221149304 129.0
60.226073160 124.0
60.230997016 126.0
60.235920872 109.0
60.240844728 134.0
60.245768584 115.0
60.250692440 115.0
60.255616296 145.0
60.260540152 140.0
60.265464008 126.0
60.270387864 124.0
60.275311720 135.0
60.280235576 145.0
60.285159432 117.0
60.290083288 123.0
60.295007144 142.0
60.299931000 119.0
60.304854856 135.0
60.309778712 151.0
60.314702568 138.0
60.319626424 117.0
60.324550280 142.0
60.329474136 133.0
60.334397992 137.0
60.339321848 125.0
60.344245704 127.0
60.349169560 134.0
60.354093416 133.0
60.359017272 136.0
60.363941128 135.0
60.368864984 134.0
60.373788841 131.0
60.378712697 117.0
60.383636553 122.0
60.388560409 130.0
60.393484265 140.0
60.398408121 144.0
60.403331977 154.0
60.408255833 145.0
60.413179689 145.0
60.418103545 139.0
60.423027401 128.0
60.427951257 150.0
60.432875113 139.0
60.437798969 145.0
60.442722825 157.0
60.447646681 137.0
60.452570537 119.0
60.457494393 124.0
60.462418249 112.0
60.467342105 142.0
60.472265961 149.0
60.477189817 132.0
60.482113673 119.0
60.487037529 131.0
60.491961385 141.0
60.496885241 152.0
60.501809097 147.0
60.506732953 133.0
60.511656809 131.0
60.516580665 139.0
60.521504521 133.0
60.526428377 153.0
60.531352233 127.0
60.536276089 123.0
60.541199945 128.0
60.546123801 159.0
60.551047657 142.0
60.555971513 135.0
60.560895369 118.0
60.565819225 135.0
60.570743081 128.0
60.575666937 128.0
60.580590793 137.0
60.585514649 149.0
60.590438505 121.0
60.595362361 134.0
60.600286217 129.0
60.605210073 129.0
60.610133929 146.0
60.615057785 144.0
60.619981641 128.0
60.624905497 151.0
60.629829353 140.0
60.634753209 123.0
60.639677065 131.0
60.644600921 163.0
60.649524777 170.0
60.654448633 151.0
60.659372489 151.0
60.664296345 146.0
60.669220201 122.0
60.674144057 155.0
60.679067913 143.0
60.683991769 146.0
60.688915625 177.0
60.693839481 172.0
60.698763337 150.0
60.703687193 159.0
60.708611049 169.0
60.713534905 160.0
60.718458761 174.0
60.723382617 175.0
60.728306473 195.0
60.733230329 182.0
60.738154185 179.0
60.743078042 194.0
60.748001898 181.0
60.752925754 210.0
60.757849610 266.0
60.762773466 280.0
60.767697322 308.0
60.772621178 314.0
60.777545034 392.0
60.782468890 416.0
60.787392746 445.0
60.792316602 490.0
60.797240458 580.0
60.802164314 656.0
60.807088170 791.0
60.812012026 848.0
60.816935882 959.0
60.821859738 1093.0
60.826783594 1204.0
60.831707450 1229.0
60.836631306 1274.0
60.841555162 1270.0
60.846479018 1313.0
60.851402874 1263.0
60.856326730 1191.0
60.861250586 1226.0
60.866174442 1129.0
60.871098298 1045.0
60.876022154 956.0
60.880946010 890.0
60.885869866 826.0
60.890793722 763.0
60.895717578 683.0
60.900641434 700.0
60.905565290 644.0
60.910489146 636.0
60.915413002 596.0
60.920336858 622.0
60.925260714 606.0
60.930184570 576.0
60.935108426 542.0
60.940032282 496.0
60.944956138 485.0
60.949879994 428.0
60.954803850 435.0
60.959727706 386.0
60.964651562 320.0
60.969575418 301.0
60.974499274 281.0
60.979423130 262.0
60.984346986 231.0
60.989270842 230.0
60.994194698 206.0
60.999118554 202.0
61.004042410 213.0
61.008966266 203.0
61.013890122 191.0
61.018813978 208.0
61.023737834 170.0
61.028661690 164.0
61.033585546 195.0
61.038509402 187.0
61.043433258 178.0
61.048357114 186.0
61.053280970 172.0
61.058204826 141.0
61.063128682 160.0
61.068052538 172.0
61.072976394 160.0
61.077900250 160.0
61.082824106 151.0
61.087747962 165.0
61.092671818 143.0
61.097595674 146.0
61.102519530 144.0
61.107443386 154.0
61.112367243 151.0
61.117291099 153.0
61.122214955 138.0
61.127138811 158.0
61.132062667 140.0
61.136986523 161.0
61.141910379 158.0
61.146834235 151.0
61.151758091 148.0
61.156681947 162.0
61.161605803 148.0
61.166529659 147.0
61.171453515 167.0
61.176377371 160.0
61.181301227 169.0
61.186225083 148.0
61.191148939 148.0
61.196072795 121.0
61.200996651 132.0
61.205920507 152.0
61.210844363 143.0
61.215768219 160.0
61.220692075 137.0
61.225615931 135.0
61.230539787 131.0
61.235463643 150.0
61.240387499 147.0
61.245311355 133.0
61.250235211 142.0
61.255159067 133.0
61.260082923 139.0
61.265006779 146.0
61.269930635 121.0
61.274854491 150.0
61.279778347 137.0
61.284702203 153.0
61.289626059 150.0
61.294549915 141.0
61.299473771 148.0
61.304397627 123.0
61.309321483 132.0
61.314245339 164.0
61.319169195 141.0
61.324093051 134.0
61.329016907 159.0
61.333940763 135.0
61.338864619 144.0
61.343788475 134.0
61.348712331 142.0
61.353636187 165.0
61.358560043 147.0
61.363483899 136.0
61.368407755 128.0
61.373331611 132.0
61.378255467 142.0
61.383179323 148.0
61.388103179 128.0
61.393027035 122.0
61.397950891 136.0
61.402874747 135.0
61.407798603 136.0
61.412722459 115.0
61.417646315 142.0
61.422570171 140.0
61.427494027 116.0
61.432417883 155.0
61.437341739 153.0
61.442265595 142.0
61.447189451 140.0
61.452113307 132.0
61.457037163 135.0
61.461961019 146.0
61.466884875 144.0
61.471808731 122.0
61.476732587 125.0
61.481656443 121.0
61.486580300 144.0
61.491504156 131.0
61.496428012 140.0
61.501351868 148.0
61.506275724 136.0
61.511199580 136.0
61.516123436 127.0
61.521047292 144.0
61.525971148 134.0
61.530895004 146.0
61.535818860 134.0
61.540742716 110.0
61.545666572 134.0
61.550590428 124.0
61.555514284 155.0
61.560438140 137.0
61.565361996 124.0
61.570285852 140.0
61.575209708 156.0
61.580133564 159.0
61.585057420 123.0
61.589981276 161.0
61.594905132 150.0
61.599828988 133.0
61.604752844 114.0
61.609676700 145.0
61.614600556 151.0
61.619524412 133.0
61.624448268 134.0
61.629372124 116.0
61.634295980 133.0
61.639219836 154.0
61.644143692 135.0
61.649067548 150.0
61.653991404 144.0
61.658915260 129.0
61.663839116 142.0
61.668762972 145.0
61.673686828 123.0
61.678610684 150.0
61.683534540 132.0
61.688458396 134.0
61.693382252 135.0
61.698306108 140.0
61.703229964 135.0
61.708153820 126.0
61.713077676 109.0
61.718001532 129.0
61.722925388 157.0
61.727849244 146.0
61.732773100 135.0
61.737696956 130.0
61.742620812 131.0
61.747544668 149.0
61.752468524 136.0
61.757392380 113.0
61.762316236 143.0
61.767240092 138.0
61.772163948 140.0
61.777087804 152.0
61.782011660 126.0
61.786935516 134.0
61.791859372 143.0
61.796783228 133.0
61.801707084 149.0
61.806630940 150.0
61.811554796 122.0
61.816478652 140.0
61.821402508 135.0
61.826326364 152.0
61.831250220 142.0
61.836174076 130.0
61.841097932 143.0
61.846021788 129.0
61.850945644 145.0
61.855869501 140.0
61.860793357 147.0
61.865717213 152.0
61.870641069 124.0
61.875564925 135.0
61.880488781 138.0
61.885412637 131.0
61.890336493 120.0
61.895260349 136.0
61.900184205 143.0
61.905108061 111.0
61.910031917 121.0
61.914955773 152.0
61.919879629 138.0
61.924803485 126.0
61.929727341 116.0
61.934651197 141.0
61.939575053 164.0
61.944498909 133.0
61.949422765 127.0
61.954346621 126.0
61.959270477 129.0
61.964194333 140.0
61.969118189 160.0
61.974042045 145.0
61.978965901 124.0
61.983889757 138.0
61.988813613 140.0
61.993737469 138.0
61.998661325 133.0
62.003585181 158.0
62.008509037 126.0
62.013432893 140.0
62.018356749 135.0
62.023280605 124.0
62.028204461 154.0
62.033128317 129.0
62.038052173 148.0
62.042976029 162.0
62.047899885 138.0
62.052823741 155.0
62.057747597 130.0
62.062671453 153.0
62.067595309 138.0
62.072519165 133.0
62.077443021 147.0
62.082366877 144.0
62.087290733 128.0
62.092214589 141.0
62.097138445 130.0
62.102062301 141.0
62.106986157 137.0
62.111910013 122.0
62.116833869 120.0
62.121757725 125.0
62.126681581 138.0
62.131605437 133.0
62.136529293 151.0
62.141453149 129.0
62.146377005 134.0
62.151300861 145.0
62.156224717 135.0
62.161148573 153.0
62.166072429 156.0
62.170996285 147.0
62.175920141 137.0
62.180843997 158.0
62.185767853 131.0
62.190691709 133.0
62.195615565 138.0
62.200539421 122.0
62.205463277 153.0
62.210387133 152.0
62.215310989 136.0
62.220234845 141.0
62.225158702 131.0
62.230082558 129.0
62.235006414 137.0
62.239930270 147.0
62.244854126 145.0
62.249777982 115.0
62.254701838 133.0
62.259625694 139.0
62.264549550 150.0
62.269473406 164.0
62.274397262 154.0
62.279321118 144.0
62.284244974 148.0
62.289168830 143.0
62.294092686 140.0
62.299016542 138.0
62.303940398 141.0
62.308864254 148.0
62.313788110 145.0
62.318711966 146.0
62.323635822 140.0
62.328559678 135.0
62.333483534 135.0
62.338407390 140.0
62.343331246 135.0
62.348255102 158.0
62.353178958 126.0
62.358102814 144.0
62.363026670 139.0
62.367950526 137.0
62.372874382 146.0
62.377798238 135.0
62.382722094 160.0
62.387645950 127.0
62.392569806 133.0
62.397493662 136.0
62.402417518 125.0
62.407341374 145.0
62.412265230 157.0
62.417189086 162.0
62.422112942 129.0
62.427036798 162.0
62.431960654 138.0
62.436884510 131.0
62.441808366 140.0
62.446732222 163.0
62.451656078 125.0
62.456579934 139.0
62.461503790 146.0
62.466427646 144.0
62.471351502 169.0
62.476275358 148.0
62.481199214 157.0
62.486123070 164.0
62.491046926 149.0
62.495970782 156.0
62.500894638 144.0
62.505818494 140.0
62.510742350 133.0
62.515666206 147.0
62.520590062 154.0
62.525513918 163.0
62.530437774 141.0
62.535361630 142.0
62.540285486 155.0
62.545209342 171.0
62.550133198 133.0
62.555057054 149.0
62.559980910 142.0
62.564904766 155.0
62.569828622 139.0
62.574752478 148.0
62.579676334 165.0
62.584600190 141.0
62.589524046 171.0
62.594447903 146.0
62.599371759 134.0
62.604295615 139.0
62.609219471 161.0
62.614143327 137.0
62.619067183 132.0
62.623991039 146.0
62.628914895 154.0
62.633838751 126.0
62.638762607 143.0
62.643686463 138.0
62.648610319 180.0
62.653534175 132.0
62.658458031 138.0
62.663381887 155.0
62.668305743 183.0
62.673229599 154.0
62.678153455 157.0
62.683077311 144.0
62.688001167 153.0
62.692925023 166.0
62.697848879 147.0
62.702772735 136.0
62.707696591 155.0
62.712620447 154.0
62.717544303 158.0
62.722468159 188.0
62.727392015 170.0
62.732315871 173.0
62.737239727 160.0
62.742163583 153.0
62.747087439 156.0
62.752011295 145.0
62.756935151 134.0
62.761859007 150.0
62.766782863 148.0
62.771706719 177.0
62.776630575 144.0
62.781554431 180.0
62.786478287 165.0
62.791402143 135.0
62.796325999 158.0
62.801249855 155.0
62.806173711 167.0
62.811097567 143.0
62.816021423 151.0
62.820945279 155.0
62.825869135 164.0
62.830792991 165.0
62.835716847 155.0
62.840640703 170.0
62.845564559 151.0
62.850488415 154.0
62.855412271 166.0
62.860336127 182.0
62.865259983 161.0
62.870183839 174.0
62.875107695 173.0
62.880031551 127.0
62.884955407 168.0
62.889879263 168.0
62.894803119 200.0
62.899726975 169.0
62.904650831 182.0
62.909574687 159.0
62.914498543 157.0
62.919422399 167.0
62.924346255 169.0
62.929270111 166.0
62.934193967 158.0
62.939117823 160.0
62.944041679 164.0
62.948965535 169.0
62.953889391 158.0
62.958813247 157.0
62.963737104 185.0
62.968660960 176.0
62.973584816 160.0
62.978508672 161.0
62.983432528 170.0
62.988356384 153.0
62.993280240 170.0
62.998204096 173.0
63.003127952 183.0
63.008051808 161.0
63.012975664 171.0
63.017899520 149.0
63.022823376 172.0
63.027747232 202.0
63.032671088 186.0
63.037594944 184.0
63.042518800 161.0
63.047442656 152.0
63.052366512 176.0
63.057290368 173.0
63.062214224 180.0
63.067138080 203.0
63.072061936 170.0
63.076985792 186.0
63.081909648 184.0
63.086833504 181.0
63.091757360 190.0
63.096681216 186.0
63.101605072 186.0
63.106528928 203.0
63.111452784 169.0
63.116376640 184.0
63.121300496 164.0
63.126224352 167.0
63.131148208 171.0
63.136072064 200.0
63.140995920 163.0
63.145919776 155.0
63.150843632 166.0
63.155767488 164.0
63.160691344 186.0
63.165615200 166.0
63.170539056 168.0
63.175462912 183.0
63.180386768 159.0
63.185310624 187.0
63.190234480 182.0
63.195158336 180.0
63.200082192 182.0
63.205006048 174.0
63.209929904 180.0
63.214853760 166.0
63.219777616 202.0
63.224701472 180.0
63.229625328 179.0
63.234549184 197.0
63.239473040 166.0
63.244396896 195.0
63.249320752 174.0
63.254244608 175.0
63.259168464 184.0
63.264092320 197.0
63.269016176 206.0
63.273940032 190.0
63.278863888 200.0
63.283787744 192.0
63.288711600 188.0
63.293635456 194.0
63.298559312 184.0
63.303483168 218.0
63.308407024 198.0
63.313330880 183.0
63.318254736 200.0
63.323178592 222.0
63.328102448 205.0
63.333026304 179.0
63.337950161 182.0
63.342874017 215.0
63.347797873 187.0
63.352721729 166.0
63.357645585 183.0
63.362569441 191.0
63.367493297 207.0
63.372417153 212.0
63.377341009 216.0
63.382264865 192.0
63.387188721 203.0
63.392112577 213.0
63.397036433 216.0
63.401960289 205.0
63.406884145 227.0
63.411808001 182.0
63.416731857 207.0
63.421655713 218.0
63.426579569 186.0
63.431503425 201.0
63.436427281 197.0
63.441351137 195.0
63.446274993 229.0
63.451198849 212.0
63.456122705 217.0
63.461046561 199.0
63.465970417 207.0
63.470894273 210.0
63.475818129 232.0
63.480741985 191.0
63.485665841 224.0
63.490589697 196.0
63.495513553 197.0
63.500437409 209.0
63.505361265 207.0
63.510285121 217.0
63.515208977 239.0
63.520132833 218.0
63.525056689 216.0
63.529980545 245.0
63.534904401 232.0
63.539828257 216.0
63.544752113 230.0
63.549675969 242.0
63.554599825 230.0
63.559523681 245.0
63.564447537 226.0
63.569371393 258.0
63.574295249 230.0
63.579219105 239.0
63.584142961 242.0
63.589066817 237.0
63.593990673 259.0
63.598914529 229.0
63.603838385 240.0
63.608762241 260.0
63.613686097 268.0
63.618609953 224.0
63.623533809 246.0
63.628457665 231.0
63.633381521 266.0
63.638305377 302.0
63.643229233 238.0
63.648153089 239.0
63.653076945 264.0
63.658000801 249.0
63.662924657 265.0
63.667848513 277.0
63.672772369 220.0
63.677696225 274.0
63.682620081 273.0
63.687543937 281.0
63.692467793 238.0
63.697391649 261.0
63.702315505 261.0
63.707239362 262.0
63.712163218 292.0
63.717087074 310.0
63.722010930 297.0
63.726934786 270.0
63.731858642 286.0
63.736782498 291.0
63.741706354 276.0
63.746630210 293.0
63.751554066 321.0
63.756477922 309.0
63.761401778 287.0
63.766325634 313.0
63.771249490 262.0
63.776173346 329.0
63.781097202 285.0
63.786021058 284.0
63.790944914 321.0
63.795868770 319.0
63.800792626 314.0
63.805716482 300.0
63.810640338 284.0
63.815564194 335.0
63.820488050 321.0
63.825411906 318.0
63.830335762 337.0
63.835259618 337.0
63.840183474 332.0
63.845107330 321.0
63.850031186 344.0
63.854955042 374.0
63.859878898 353.0
63.864802754 364.0
63.869726610 355.0
63.874650466 385.0
63.879574322 374.0
63.884498178 384.0
63.889422034 374.0
63.894345890 374.0
63.899269746 371.0
63.904193602 383.0
63.909117458 395.0
63.914041314 458.0
63.918965170 389.0
63.923889026 433.0
63.928812882 405.0
63.933736738 424.0
63.938660594 424.0
63.943584450 423.0
63.948508306 426.0
63.953432162 423.0
63.958356018 486.0
63.963279874 426.0
63.968203730 449.0
63.973127586 461.0
63.978051442 443.0
63.982975298 418.0
63.987899154 483.0
63.992823010 499.0
63.997746866 530.0
64.002670722 495.0
64.007594578 475.0
64.012518434 521.0
64.017442290 528.0
64.022366146 566.0
64.027290002 515.0
64.032213858 553.0
64.037137714 542.0
64.042061570 542.0
64.046985426 549.0
64.051909282 551.0
64.056833138 581.0
64.061756994 635.0
64.066680850 566.0
64.071604706 603.0
64.076528563 579.0
64.081452419 624.0
64.086376275 622.0
64.091300131 668.0
64.096223987 626.0
64.101147843 662.0
64.106071699 670.0
64.110995555 714.0
64.115919411 681.0
64.120843267 688.0
64.125767123 715.0
64.130690979 751.0
64.135614835 810.0
64.140538691 798.0
64.145462547 775.0
64.150386403 817.0
64.155310259 847.0
64.160234115 815.0
64.165157971 839.0
64.170081827 874.0
64.175005683 853.0
64.179929539 890.0
64.184853395 939.0
64.189777251 921.0
64.194701107 953.0
64.199624963 1000.0
64.204548819 932.0
64.209472675 1012.0
64.214396531 999.0
64.219320387 1053.0
64.224244243 1016.0
64.229168099 1131.0
64.234091955 1073.0
64.239015811 1128.0
64.243939667 1127.0
64.248863523 1143.0
64.253787379 1247.0
64.258711235 1152.0
64.263635091 1237.0
64.268558947 1241.0
64.273482803 1298.0
64.278406659 1291.0
64.283330515 1385.0
64.288254371 1468.0
64.293178227 1407.0
64.298102083 1408.0
64.303025939 1570.0
64.307949795 1522.0
64.312873651 1571.0
64.317797507 1669.0
64.322721363 1612.0
64.327645219 1623.0
64.332569075 1705.0
64.337492931 1717.0
64.342416787 1770.0
64.347340643 1836.0
64.352264499 1840.0
64.357188355 2020.0
64.362112211 1939.0
64.367036067 1972.0
64.371959923 1934.0
64.376883779 2055.0
64.381807635 2156.0
64.386731491 2067.0
64.391655347 2194.0
64.396579203 2302.0
64.401503059 2255.0
64.406426915 2404.0
64.411350771 2423.0
64.416274627 2362.0
64.421198483 2464.0
64.426122339 2549.0
64.431046195 2548.0
64.435970051 2603.0
64.440893907 2700.0
64.445817764 2696.0
64.450741620 2824.0
64.455665476 2778.0
64.460589332 2883.0
64.465513188 3005.0
64.470437044 3032.0
64.475360900 2951.0
64.480284756 3094.0
64.485208612 3203.0
64.490132468 3238.0
64.495056324 3429.0
64.499980180 3348.0
64.504904036 3405.0
64.509827892 3535.0
64.514751748 3493.0
64.519675604 3522.0
64.524599460 3694.0
64.529523316 3700.0
64.534447172 3841.0
64.539371028 3807.0
64.544294884 3835.0
64.549218740 3908.0
64.554142596 3956.0
64.559066452 3965.0
64.563990308 3860.0
64.568914164 4028.0
64.573838020 4047.0
64.578761876 4102.0
64.583685732 4289.0
64.588609588 4289.0
64.593533444 4243.0
64.598457300 4228.0
64.603381156 4479.0
64.608305012 4403.0
64.613228868 4516.0
64.618152724 4361.0
64.623076580 4375.0
64.628000436 4476.0
64.632924292 4543.0
64.637848148 4568.0
64.642772004 4440.0
64.647695860 4684.0
64.652619716 4596.0
64.657543572 4485.0
64.662467428 4636.0
64.667391284 4647.0
64.672315140 4636.0
64.677238996 4677.0
64.682162852 4563.0
64.687086708 4637.0
64.692010564 4521.0
64.696934420 4322.0
64.701858276 4502.0
64.706782132 4534.0
64.711705988 4469.0
64.716629844 4399.0
64.721553700 4367.0
64.726477556 4340.0
64.731401412 4272.0
64.736325268 4288.0
64.741249124 4104.0
64.746172980 4143.0
64.751096836 4181.0
64.756020692 4108.0
64.760944548 3943.0
64.765868404 3980.0
64.770792260 3894.0
64.775716116 3800.0
64.780639972 3810.0
64.785563828 3694.0
64.790487684 3726.0
64.795411540 3700.0
64.800335396 3710.0
64.805259252 3619.0
64.810183108 3627.0
64.815106965 3461.0
64.820030821 3497.0
64.824954677 3413.0
64.829878533 3288.0
64.834802389 3285.0
64.839726245 3224.0
64.844650101 3162.0
64.849573957 3121.0
64.854497813 2990.0
64.859421669 3016.0
64.864345525 2978.0
64.869269381 2935.0
64.874193237 2855.0
64.879117093 2859.0
64.884040949 2750.0
64.888964805 2763.0
64.893888661 2710.0
64.898812517 2616.0
64.903736373 2591.0
64.908660229 2504.0
64.913584085 2427.0
64.918507941 2428.0
64.923431797 2463.0
64.928355653 2338.0
64.933279509 2310.0
64.938203365 2265.0
64.943127221 2173.0
64.948051077 2086.0
64.952974933 2046.0
64.957898789 2082.0
64.962822645 1920.0
64.967746501 1934.0
64.972670357 1923.0
64.977594213 1858.0
64.982518069 1791.0
64.987441925 1804.0
64.992365781 1734.0
64.997289637 1612.0
65.002213493 1566.0
65.007137349 1595.0
65.012061205 1568.0
65.016985061 1561.0
65.021908917 1520.0
65.026832773 1431.0
65.031756629 1390.0
65.036680485 1403.0
65.041604341 1390.0
65.046528197 1335.0
65.051452053 1299.0
65.056375909 1285.0
65.061299765 1193.0
65.066223621 1260.0
65.071147477 1218.0
65.076071333 1210.0
65.080995189 1103.0
65.085919045 1105.0
65.090842901 1020.0
65.095766757 1065.0
65.100690613 1084.0
65.105614469 1057.0
65.110538325 1041.0
65.115462181 1090.0
65.120386037 1042.0
65.125309893 973.0
65.130233749 881.0
65.135157605 886.0
65.140081461 920.0
65.145005317 954.0
65.149929173 851.0
65.154853029 952.0
65.159776885 840.0
65.164700741 836.0
65.169624597 825.0
65.174548453 817.0
65.179472309 791.0
65.184396165 790.0
65.189320022 775.0
65.194243878 748.0
65.199167734 753.0
65.204091590 751.0
65.209015446 738.0
65.213939302 640.0
65.218863158 729.0
65.223787014 731.0
65.228710870 653.0
65.233634726 658.0
65.238558582 698.0
65.243482438 635.0
65.248406294 601.0
65.253330150 599.0
65.258254006 611.0
65.263177862 646.0
65.268101718 615.0
65.273025574 551.0
65.277949430 585.0
65.282873286 552.0
65.287797142 621.0
65.292720998 583.0
65.297644854 557.0
65.302568710 572.0
65.307492566 568.0
65.312416422 579.0
65.317340278 541.0
65.322264134 514.0
65.327187990 523.0
65.332111846 504.0
65.337035702 536.0
65.341959558 499.0
65.346883414 461.0
65.351807270 491.0
65.356731126 485.0
65.361654982 478.0
65.366578838 416.0
65.371502694 508.0
65.376426550 458.0
65.381350406 438.0
65.386274262 472.0
65.391198118 444.0
65.396121974 477.0
65.401045830 447.0
65.405969686 458.0
65.410893542 454.0
65.415817398 426.0
65.420741254 464.0
65.425665110 420.0
65.430588966 461.0
65.435512822 432.0
65.440436678 438.0
65.445360534 448.0
65.450284390 416.0
65.455208246 386.0
65.460132102 382.0
65.465055958 384.0
65.469979814 372.0
65.474903670 396.0
65.479827526 408.0
65.484751382 397.0
65.489675238 358.0
65.494599094 354.0
65.499522950 369.0
65.504446806 392.0
65.509370662 389.0
65.514294518 329.0
65.519218374 347.0
65.524142230 369.0
65.529066086 358.0
65.533989942 356.0
65.538913798 350.0
65.543837654 305.0
65.548761510 349.0
65.553685366 339.0
65.558609223 349.0
65.563533079 383.0
65.568456935 319.0
65.573380791 371.0
65.578304647 331.0
65.583228503 306.0
65.588152359 343.0
65.593076215 320.0
65.598000071 321.0
65.602923927 350.0
65.607847783 331.0
65.612771639 335.0
65.617695495 292.0
65.622619351 290.0
65.627543207 306.0
65.632467063 293.0
65.637390919 312.0
65.642314775 297.0
65.647238631 320.0
65.652162487 292.0
65.657086343 280.0
65.662010199 326.0
65.666934055 283.0
65.671857911 293.0
65.676781767 300.0
65.681705623 339.0
65.686629479 297.0
65.691553335 270.0
65.696477191 270.0
65.701401047 299.0
65.706324903 318.0
65.711248759 300.0
65.716172615 281.0
65.721096471 296.0
65.726020327 281.0
65.730944183 284.0
65.735868039 290.0
65.740791895 270.0
65.745715751 271.0
65.750639607 290.0
65.755563463 282.0
65.760487319 275.0
65.765411175 287.0
65.770335031 285.0
65.775258887 300.0
65.780182743 263.0
65.785106599 291.0
65.790030455 280.0
65.794954311 285.0
65.799878167 282.0
65.804802023 303.0
65.809725879 275.0
65.814649735 264.0
65.819573591 257.0
65.824497447 296.0
65.829421303 270.0
65.834345159 255.0
65.839269015 256.0
65.844192871 239.0
65.849116727 257.0
65.854040583 286.0
65.858964439 225.0
65.863888295 277.0
65.868812151 276.0
65.873736007 268.0
65.878659863 273.0
65.883583719 288.0
65.888507575 289.0
65.893431431 277.0
65.898355287 290.0
65.903279143 279.0
65.908202999 216.0
65.913126855 258.0
65.918050711 274.0
65.922974567 232.0
65.927898424 259.0
65.932822280 265.0
65.937746136 238.0
65.942669992 235.0
65.947593848 242.0
65.952517704 235.0
65.957441560 284.0
65.962365416 256.0
65.967289272 267.0
65.972213128 266.0
65.977136984 260.0
65.982060840 267.0
65.986984696 255.0
65.991908552 234.0
65.996832408 239.0
66.001756264 230.0
66.006680120 259.0
66.011603976 282.0
66.016527832 233.0
66.021451688 273.0
66.026375544 263.0
66.031299400 232.0
66.036223256 267.0
66.041147112 232.0
66.046070968 261.0
66.050994824 256.0
66.055918680 296.0
66.060842536 291.0
66.065766392 276.0
66.070690248 285.0
66.075614104 283.0
66.080537960 230.0
66.085461816 239.0
66.090385672 280.0
66.095309528 279.0
66.100233384 289.0
66.105157240 282.0
66.110081096 234.0
66.115004952 240.0
66.119928808 271.0
66.124852664 279.0
66.129776520 294.0
66.134700376 269.0
66.139624232 273.0
66.144548088 312.0
66.149471944 255.0
66.154395800 305.0
66.159319656 295.0
66.164243512 271.0
66.169167368 268.0
66.174091224 295.0
66.179015080 279.0
66.183938936 294.0
66.188862792 298.0
66.193786648 256.0
66.198710504 307.0
66.203634360 290.0
66.208558216 297.0
66.213482072 289.0
66.218405928 281.0
66.223329784 313.0
66.228253640 291.0
66.233177496 288.0
66.238101352 275.0
66.243025208 280.0
66.247949064 282.0
66.252872920 261.0
66.257796776 310.0
66.262720632 281.0
66.267644488 304.0
66.272568344 281.0
66.277492200 230.0
66.282416056 267.0
66.287339912 290.0
66.292263768 287.0
66.297187625 303.0
66.302111481 307.0
66.307035337 262.0
66.311959193 284.0
66.316883049 273.0
66.321806905 320.0
66.326730761 272.0
66.331654617 278.0
66.336578473 272.0
66.341502329 273.0
66.346426185 289.0
66.351350041 286.0
66.356273897 333.0
66.361197753 284.0
66.366121609 312.0
66.371045465 280.0
66.375969321 297.0
66.380893177 296.0
66.385817033 298.0
66.390740889 312.0
66.395664745 277.0
66.400588601 298.0
66.405512457 319.0
66.410436313 328.0
66.415360169 280.0
66.420284025 297.0
66.425207881 319.0
66.430131737 325.0
66.435055593 326.0
66.439979449 307.0
66.444903305 335.0
66.449827161 291.0
66.454751017 298.0
66.459674873 339.0
66.464598729 331.0
66.469522585 279.0
66.474446441 339.0
66.479370297 332.0
66.484294153 333.0
66.489218009 299.0
66.494141865 296.0
66.499065721 340.0
66.503989577 361.0
66.508913433 315.0
66.513837289 325.0
66.518761145 335.0
66.523685001 317.0
66.528608857 320.0
66.533532713 314.0
66.538456569 302.0
66.543380425 369.0
66.548304281 332.0
66.553228137 332.0
66.558151993 357.0
66.563075849 336.0
66.567999705 336.0
66.572923561 334.0
66.577847417 360.0
66.582771273 351.0
66.587695129 321.0
66.592618985 330.0
66.597542841 340.0
66.602466697 309.0
66.607390553 333.0
66.612314409 354.0
66.617238265 381.0
66.622162121 369.0
66.627085977 329.0
66.632009833 330.0
66.636933689 335.0
66.641857545 323.0
66.646781401 351.0
66.651705257 365.0
66.656629113 333.0
66.661552969 348.0
66.666476826 380.0
66.671400682 382.0
66.676324538 361.0
66.681248394 360.0
66.686172250 317.0
66.691096106 358.0
66.696019962 383.0
66.700943818 326.0
66.705867674 362.0
66.710791530 361.0
66.715715386 352.0
66.720639242 355.0
66.725563098 330.0
66.730486954 361.0
66.735410810 361.0
66.740334666 368.0
66.745258522 362.0
66.750182378 381.0
66.755106234 395.0
66.760030090 431.0
66.764953946 385.0
66.769877802 376.0
66.774801658 376.0
66.779725514 388.0
66.784649370 366.0
66.789573226 370.0
66.794497082 380.0
66.799420938 395.0
66.804344794 385.0
66.809268650 388.0
66.814192506 386.0
66.819116362 397.0
66.824040218 385.0
66.828964074 390.0
66.833887930 394.0
66.838811786 385.0
66.843735642 409.0
66.848659498 369.0
66.853583354 386.0
66.858507210 430.0
66.863431066 400.0
66.868354922 427.0
66.873278778 408.0
66.878202634 420.0
66.883126490 410.0
66.888050346 392.0
66.892974202 407.0
66.897898058 478.0
66.902821914 428.0
66.907745770 400.0
66.912669626 428.0
66.917593482 425.0
66.922517338 456.0
66.927441194 436.0
66.932365050 388.0
66.937288906 400.0
66.942212762 415.0
66.947136618 462.0
66.952060474 429.0
66.956984330 454.0
66.961908186 419.0
66.966832042 412.0
66.971755898 438.0
66.976679754 451.0
66.981603610 434.0
66.986527466 410.0
66.991451322 447.0
66.996375178 431.0
67.001299034 444.0
67.006222890 457.0
67.011146746 425.0
67.016070602 409.0
67.020994458 462.0
67.025918314 495.0
67.030842170 485.0
67.035766026 486.0
67.040689883 520.0
67.045613739 470.0
67.050537595 472.0
67.055461451 449.0
67.060385307 469.0
67.065309163 475.0
67.070233019 454.0
67.075156875 468.0
67.080080731 504.0
67.085004587 487.0
67.089928443 439.0
67.094852299 490.0
67.099776155 538.0
67.104700011 521.0
67.109623867 490.0
67.114547723 504.0
67.119471579 506.0
67.124395435 518.0
67.129319291 512.0
67.134243147 508.0
67.139167003 513.0
67.144090859 525.0
67.149014715 519.0
67.153938571 519.0
67.158862427 513.0
67.163786283 516.0
67.168710139 535.0
67.173633995 537.0
67.178557851 508.0
67.183481707 532.0
67.188405563 538.0
67.193329419 520.0
67.198253275 562.0
67.203177131 498.0
67.208100987 518.0
67.213024843 547.0
67.217948699 516.0
67.222872555 546.0
67.227796411 547.0
67.232720267 553.0
67.237644123 540.0
67.242567979 508.0
67.247491835 539.0
67.252415691 522.0
67.257339547 576.0
67.262263403 592.0
67.267187259 596.0
67.272111115 610.0
67.277034971 591.0
67.281958827 591.0
67.286882683 582.0
67.291806539 617.0
67.296730395 567.0
67.301654251 616.0
67.306578107 591.0
67.311501963 632.0
67.316425819 587.0
67.321349675 614.0
67.326273531 592.0
67.331197387 589.0
67.336121243 615.0
67.341045099 620.0
67.345968955 603.0
67.350892811 640.0
67.355816667 662.0
67.360740523 679.0
67.365664379 642.0
67.370588235 688.0
67.375512091 688.0
67.380435947 651.0
67.385359803 660.0
67.390283659 682.0
67.395207515 705.0
67.400131371 655.0
67.405055227 661.0
67.409979084 659.0
67.414902940 718.0
67.419826796 709.0
67.424750652 710.0
67.429674508 708.0
67.434598364 729.0
67.439522220 749.0
67.444446076 720.0
67.449369932 728.0
67.454293788 711.0
67.459217644 793.0
67.464141500 724.0
67.469065356 727.0
67.473989212 785.0
67.478913068 790.0
67.483836924 758.0
67.488760780 783.0
67.493684636 780.0
67.498608492 787.0
67.503532348 804.0
67.508456204 773.0
67.513380060 790.0
67.518303916 790.0
67.523227772 811.0
67.528151628 794.0
67.533075484 843.0
67.537999340 820.0
67.542923196 818.0
67.547847052 873.0
67.552770908 839.0
67.557694764 871.0
67.562618620 923.0
67.567542476 903.0
67.572466332 836.0
67.577390188 874.0
67.582314044 894.0
67.587237900 937.0
67.592161756 958.0
67.597085612 908.0
67.602009468 907.0
67.606933324 960.0
67.611857180 973.0
67.616781036 993.0
67.621704892 997.0
67.626628748 993.0
67.631552604 1044.0
67.636476460 1022.0
67.641400316 1001.0
67.646324172 1068.0
67.651248028 1024.0
67.656171884 1040.0
67.661095740 1097.0
67.666019596 1164.0
67.670943452 1105.0
67.675867308 1212.0
67.680791164 1164.0
67.685715020 1165.0
67.690638876 1249.0
67.695562732 1229.0
67.700486588 1290.0
67.705410444 1299.0
67.710334300 1355.0
67.715258156 1456.0
67.720182012 1491.0
67.725105868 1440.0
67.730029724 1515.0
67.734953580 1660.0
67.739877436 1647.0
67.744801292 1795.0
67.749725148 1915.0
67.754649004 1969.0
67.759572860 2018.0
67.764496716 2206.0
67.769420572 2226.0
67.774344428 2317.0
67.779268285 2537.0
67.784192141 2657.0
67.789115997 2698.0
67.794039853 2742.0
67.798963709 2927.0
67.803887565 2988.0
67.808811421 3075.0
67.813735277 3130.0
67.818659133 3269.0
67.823582989 3360.0
67.828506845 3383.0
67.833430701 3515.0
67.838354557 3380.0
67.843278413 3525.0
67.848202269 3540.0
67.853126125 3712.0
67.858049981 3527.0
67.862973837 3663.0
67.867897693 3440.0
67.872821549 3658.0
67.877745405 3527.0
67.882669261 3488.0
67.887593117 3510.0
67.892516973 3449.0
67.897440829 3535.0
67.902364685 3450.0
67.907288541 3362.0
67.912212397 3443.0
67.917136253 3452.0
67.922060109 3511.0
67.926983965 3467.0
67.931907821 3561.0
67.936831677 3596.0
67.941755533 3564.0
67.946679389 3670.0
67.951603245 3876.0
67.956527101 3905.0
67.961450957 4101.0
67.966374813 4229.0
67.971298669 4172.0
67.976222525 4542.0
67.981146381 4620.0
67.986070237 4933.0
67.990994093 5043.0
67.995917949 5351.0
68.000841805 5414.0
68.005765661 5955.0
68.010689517 6111.0
68.015613373 6651.0
68.020537229 6874.0
68.025461085 7674.0
68.030384941 7748.0
68.035308797 8704.0
68.040232653 8823.0
68.045156509 10117.0
68.050080365 10355.0
68.055004221 11581.0
68.059928077 12220.0
68.064851933 14081.0
68.069775789 14861.0
68.074699645 16926.0
68.079623501 18113.0
68.084547357 21237.0
68.089471213 22946.0
68.094395069 27713.0
68.099318925 31234.0
68.104242781 37889.0
68.109166637 45031.0
68.114090493 56892.0
68.119014349 73602.0
68.123938205 98179.0
68.128862061 134070.0
68.133785917 178264.0
68.138709773 226672.0
68.143633629 266111.0
68.148557486 296315.0
68.153481342 314876.0
68.158405198 329535.0
68.163329054 338190.0
68.168252910 341282.0
68.173176766 335824.0
68.178100622 322903.0
68.183024478 297495.0
68.187948334 259225.0
68.192872190 210554.0
68.197796046 165102.0
68.202719902 126611.0
68.207643758 99774.0
68.212567614 78547.0
68.217491470 64433.0
68.222415326 51609.0
68.227339182 43528.0
68.232263038 35972.0
68.237186894 31152.0
68.242110750 27479.0
68.247034606 24598.0
68.251958462 22229.0
68.256882318 20819.0
68.261806174 19989.0
68.266730030 19262.0
68.271653886 19190.0
68.276577742 19274.0
68.281501598 20497.0
68.286425454 21529.0
68.291349310 23152.0
68.296273166 26220.0
68.301197022 29935.0
68.306120878 35504.0
68.311044734 43611.0
68.315968590 54972.0
68.320892446 69807.0
68.325816302 89053.0
68.330740158 107948.0
68.335664014 126629.0
68.340587870 142036.0
68.345511726 153834.0
68.350435582 161389.0
68.355359438 165380.0
68.360283294 166773.0
68.365207150 164923.0
68.370131006 156713.0
68.375054862 145987.0
68.379978718 129567.0
68.384902574 110263.0
68.389826430 90725.0
68.394750286 72608.0
68.399674142 58064.0
68.404597998 45423.0
68.409521854 37177.0
68.414445710 29681.0
68.419369566 24732.0
68.424293422 20800.0
68.429217278 17613.0
68.434141134 15146.0
68.439064990 13315.0
68.443988846 11736.0
68.448912702 10622.0
68.453836558 9640.0
68.458760414 8700.0
68.463684270 7974.0
68.468608126 7604.0
68.473531982 6862.0
68.478455838 6573.0
68.483379694 6265.0
68.488303550 5816.0
68.493227406 5502.0
68.498151262 5216.0
68.503075118 4960.0
68.507998974 4686.0
68.512922830 4480.0
68.517846687 4371.0
68.522770543 4118.0
68.527694399 4045.0
68.532618255 3935.0
68.537542111 3670.0
68.542465967 3539.0
68.547389823 3603.0
68.552313679 3492.0
68.557237535 3206.0
68.562161391 3259.0
68.567085247 3162.0
68.572009103 2954.0
68.576932959 2927.0
68.581856815 2825.0
68.586780671 2800.0
68.591704527 2618.0
68.596628383 2576.0
68.601552239 2523.0
68.606476095 2410.0
68.611399951 2394.0
68.616323807 2394.0
68.621247663 2313.0
68.626171519 2243.0
68.631095375 2191.0
68.636019231 2135.0
68.640943087 2047.0
68.645866943 2020.0
68.650790799 1981.0
68.655714655 1930.0
68.660638511 1939.0
68.665562367 1859.0
68.670486223 1877.0
68.675410079 1719.0
68.680333935 1711.0
68.685257791 1742.0
68.690181647 1764.0
68.695105503 1652.0
68.700029359 1635.0
68.704953215 1572.0
68.709877071 1519.0
68.714800927 1551.0
68.719724783 1518.0
68.724648639 1466.0
68.729572495 1484.0
68.734496351 1478.0
68.739420207 1414.0
68.744344063 1453.0
68.749267919 1372.0
68.754191775 1369.0
68.759115631 1325.0
68.764039487 1384.0
68.768963343 1289.0
68.773887199 1298.0
68.778811055 1262.0
68.783734911 1228.0
68.788658767 1204.0
68.793582623 1235.0
68.798506479 1212.0
68.803430335 1179.0
68.808354191 1121.0
68.813278047 1153.0
68.818201903 1073.0
68.823125759 1104.0
68.828049615 1057.0
68.832973471 1004.0
68.837897327 1010.0
68.842821183 1034.0
68.847745039 985.0
68.852668895 1008.0
68.857592751 955.0
68.862516607 951.0
68.867440463 945.0
68.872364319 899.0
68.877288175 921.0
68.882212031 892.0
68.887135887 937.0
68.892059744 927.0
68.896983600 854.0
68.901907456 864.0
68.906831312 820.0
68.911755168 865.0
68.916679024 880.0
68.921602880 914.0
68.926526736 800.0
68.931450592 825.0
68.936374448 769.0
68.941298304 791.0
68.946222160 822.0
68.951146016 781.0
68.956069872 789.0
68.960993728 780.0
68.965917584 780.0
68.970841440 813.0
68.975765296 761.0
68.980689152 744.0
68.985613008 714.0
68.990536864 712.0
68.995460720 704.0
69.000384576 694.0
69.005308432 710.0
69.010232288 708.0
69.015156144 675.0
69.020080000 694.0
69.025003856 693.0
69.029927712 671.0
69.034851568 709.0
69.039775424 670.0
69.044699280 687.0
69.049623136 650.0
69.054546992 621.0
69.059470848 644.0
69.064394704 602.0
69.069318560 600.0
69.074242416 649.0
69.079166272 609.0
69.084090128 657.0
69.089013984 593.0
69.093937840 608.0
69.098861696 622.0
69.103785552 585.0
69.108709408 593.0
69.113633264 637.0
69.118557120 592.0
69.123480976 583.0
69.128404832 555.0
69.133328688 569.0
69.138252544 554.0
69.143176400 563.0
69.148100256 573.0
69.153024112 503.0
69.157947968 539.0
69.162871824 564.0
69.167795680 562.0
69.172719536 578.0
69.177643392 508.0
69.182567248 514.0
69.187491104 521.0
69.192414960 468.0
69.197338816 482.0
69.202262672 500.0
69.207186528 524.0
69.212110384 494.0
69.217034240 502.0
69.221958096 482.0
69.226881952 483.0
69.231805808 512.0
69.236729664 501.0
69.241653520 468.0
69.246577376 455.0
69.251501232 441.0
69.256425088 469.0
69.261348945 490.0
69.266272801 466.0
69.271196657 474.0
69.276120513 440.0
69.281044369 444.0
69.285968225 461.0
69.290892081 454.0
69.295815937 445.0
69.300739793 421.0
69.305663649 427.0
69.310587505 406.0
69.315511361 435.0
69.320435217 443.0
69.325359073 432.0
69.330282929 456.0
69.335206785 420.0
69.340130641 427.0
69.345054497 442.0
69.349978353 423.0
69.354902209 412.0
69.359826065 384.0
69.364749921 407.0
69.369673777 392.0
69.374597633 386.0
69.379521489 381.0
69.384445345 351.0
69.389369201 373.0
69.394293057 384.0
69.399216913 356.0
69.404140769 364.0
69.409064625 372.0
69.413988481 399.0
69.418912337 373.0
69.423836193 386.0
69.428760049 364.0
69.433683905 326.0
69.438607761 380.0
69.443531617 372.0
69.448455473 360.0
69.453379329 345.0
69.458303185 327.0
69.463227041 363.0
69.468150897 325.0
69.473074753 332.0
69.477998609 339.0
69.482922465 336.0
69.487846321 356.0
69.492770177 338.0
69.497694033 319.0
69.502617889 312.0
69.507541745 366.0
69.512465601 320.0
69.517389457 324.0
69.522313313 316.0
69.527237169 309.0
69.532161025 297.0
69.537084881 295.0
69.542008737 336.0
69.546932593 324.0
69.551856449 356.0
69.556780305 327.0
69.561704161 287.0
69.566628017 300.0
69.571551873 350.0
69.576475729 332.0
69.581399585 305.0
69.586323441 300.0
69.591247297 300.0
69.596171153 266.0
69.601095009 260.0
69.606018865 295.0
69.610942721 292.0
69.615866577 302.0
69.620790433 297.0
69.625714289 290.0
69.630638146 293.0
69.635562002 284.0
69.640485858 310.0
69.645409714 282.0
69.650333570 278.0
69.655257426 286.0
69.660181282 264.0
69.665105138 291.0
69.670028994 257.0
69.674952850 275.0
69.679876706 277.0
69.684800562 255.0
69.689724418 260.0
69.694648274 278.0
69.699572130 226.0
69.704495986 255.0
69.709419842 281.0
69.714343698 285.0
69.719267554 236.0
69.724191410 265.0
69.729115266 281.0
69.734039122 298.0
69.738962978 214.0
69.743886834 261.0
69.748810690 217.0
69.753734546 259.0
69.758658402 215.0
69.763582258 272.0
69.768506114 211.0
69.773429970 259.0
69.778353826 222.0
69.783277682 198.0
69.788201538 190.0
69.793125394 211.0
69.798049250 218.0
69.802973106 264.0
69.807896962 231.0
69.812820818 220.0
69.817744674 258.0
69.822668530 206.0
69.827592386 216.0
69.832516242 217.0
69.837440098 260.0
69.842363954 259.0
69.847287810 232.0
69.852211666 226.0
69.857135522 230.0
69.862059378 214.0
69.866983234 210.0
69.871907090 208.0
69.876830946 214.0
69.881754802 219.0
69.886678658 232.0
69.891602514 210.0
69.896526370 228.0
69.901450226 218.0
69.906374082 193.0
69.911297938 202.0
69.916221794 207.0
69.921145650 212.0
69.926069506 204.0
69.930993362 199.0
69.935917218 218.0
69.940841074 188.0
69.945764930 199.0
69.950688786 188.0
69.955612642 225.0
69.960536498 202.0
69.965460354 202.0
69.970384210 192.0
69.975308066 217.0
69.980231922 188.0
69.985155778 212.0
69.990079634 182.0
69.995003490 172.0
69.999927347 197.0
70.004851203 204.0
70.009775059 186.0
70.014698915 237.0
70.019622771 200.0
70.024546627 187.0
70.029470483 189.0
70.034394339 179.0
70.039318195 205.0
70.044242051 189.0
70.049165907 179.0
70.054089763 184.0
70.059013619 222.0
70.063937475 197.0
70.068861331 175.0
70.073785187 209.0
70.078709043 220.0
70.083632899 193.0
70.088556755 183.0
70.093480611 175.0
70.098404467 195.0
70.103328323 172.0
70.108252179 199.0
70.113176035 210.0
70.118099891 185.0
70.123023747 155.0
70.127947603 211.0
70.132871459 200.0
70.137795315 161.0
70.142719171 199.0
70.147643027 178.0
70.152566883 189.0
70.157490739 194.0
70.162414595 204.0
70.167338451 202.0
70.172262307 182.0
70.177186163 212.0
70.182110019 149.0
70.187033875 172.0
70.191957731 205.0
70.196881587 200.0
70.201805443 201.0
70.206729299 170.0
70.211653155 180.0
70.216577011 181.0
70.221500867 189.0
70.226424723 207.0
70.231348579 174.0
70.236272435 170.0
70.241196291 186.0
70.246120147 182.0
70.251044003 160.0
70.255967859 205.0
70.260891715 186.0
70.265815571 191.0
70.270739427 187.0
70.275663283 169.0
70.280587139 186.0
70.285510995 172.0
70.290434851 181.0
70.295358707 160.0
70.300282563 175.0
70.305206419 161.0
70.310130275 186.0
70.315054131 198.0
70.319977987 180.0
70.324901843 187.0
70.329825699 177.0
70.334749555 165.0
70.339673411 178.0
70.344597267 177.0
70.349521123 175.0
70.354444979 167.0
70.359368835 179.0
70.364292691 187.0
70.369216548 185.0
70.374140404 143.0
70.379064260 180.0
70.383988116 169.0
70.388911972 179.0
70.393835828 144.0
70.398759684 175.0
70.403683540 173.0
70.408607396 192.0
70.413531252 191.0
70.418455108 183.0
70.423378964 153.0
70.428302820 148.0
70.433226676 199.0
70.438150532 177.0
70.443074388 165.0
70.447998244 165.0
70.452922100 179.0
70.457845956 161.0
70.462769812 153.0
70.467693668 179.0
70.472617524 167.0
70.477541380 171.0
70.482465236 168.0
70.487389092 177.0
70.492312948 173.0
70.497236804 158.0
70.502160660 185.0
70.507084516 146.0
70.512008372 167.0
70.516932228 149.0
70.521856084 151.0
70.526779940 188.0
70.531703796 172.0
70.536627652 160.0
70.541551508 177.0
70.546475364 163.0
70.551399220 187.0
70.556323076 184.0
70.561246932 171.0
70.566170788 181.0
70.571094644 173.0
70.576018500 167.0
70.580942356 181.0
70.585866212 173.0
70.590790068 182.0
70.595713924 161.0
70.600637780 149.0
70.605561636 171.0
70.610485492 176.0
70.615409348 156.0
70.620333204 157.0
70.625257060 141.0
70.630180916 191.0
70.635104772 156.0
70.640028628 165.0
70.644952484 145.0
70.649876340 159.0
70.654800196 169.0
70.659724052 155.0
70.664647908 165.0
70.669571764 161.0
70.674495620 144.0
70.679419476 161.0
70.684343332 166.0
70.689267188 179.0
70.694191044 177.0
70.699114900 165.0
70.704038756 161.0
70.708962612 160.0
70.713886468 188.0
70.718810324 161.0
70.723734180 182.0
70.728658036 149.0
70.733581892 149.0
70.738505748 161.0
70.743429605 133.0
70.748353461 151.0
70.753277317 152.0
70.758201173 153.0
70.763125029 163.0
70.768048885 157.0
70.772972741 131.0
70.777896597 138.0
70.782820453 170.0
70.787744309 172.0
70.792668165 182.0
70.797592021 161.0
70.802515877 149.0
70.807439733 156.0
70.812363589 159.0
70.817287445 169.0
70.822211301 161.0
70.827135157 168.0
70.832059013 153.0
70.836982869 178.0
70.841906725 160.0
70.846830581 159.0
70.851754437 139.0
70.856678293 148.0
70.861602149 145.0
70.866526005 133.0
70.871449861 164.0
70.876373717 142.0
70.881297573 152.0
70.886221429 155.0
70.891145285 158.0
70.896069141 181.0
70.900992997 146.0
70.905916853 162.0
70.910840709 150.0
70.915764565 143.0
70.920688421 153.0
70.925612277 174.0
70.930536133 150.0
70.935459989 147.0
70.940383845 176.0
70.945307701 165.0
70.950231557 150.0
70.955155413 135.0
70.960079269 167.0
70.965003125 153.0
70.969926981 171.0
70.974850837 144.0
70.979774693 149.0
70.984698549 147.0
70.989622405 141.0
70.994546261 144.0
70.999470117 134.0
71.004393973 144.0
71.009317829 162.0
71.014241685 143.0
71.019165541 146.0
71.024089397 143.0
71.029013253 143.0
71.033937109 127.0
71.038860965 178.0
71.043784821 158.0
71.048708677 145.0
71.053632533 158.0
71.058556389 156.0
71.063480245 168.0
71.068404101 177.0
71.073327957 159.0
71.078251813 143.0
71.083175669 155.0
71.088099525 155.0
71.093023381 148.0
71.097947237 140.0
71.102871093 152.0
71.107794949 161.0
71.112718806 134.0
71.117642662 153.0
71.122566518 171.0
71.127490374 153.0
71.132414230 139.0
71.137338086 151.0
71.142261942 150.0
71.147185798 152.0
71.152109654 145.0
71.157033510 153.0
71.161957366 158.0
71.166881222 167.0
71.171805078 167.0
71.176728934 151.0
71.181652790 157.0
71.186576646 151.0
71.191500502 174.0
71.196424358 162.0
71.201348214 131.0
71.206272070 152.0
71.211195926 147.0
71.216119782 162.0
71.221043638 146.0
71.225967494 141.0
71.230891350 156.0
71.235815206 128.0
71.240739062 139.0
71.245662918 166.0
71.250586774 156.0
71.255510630 152.0
71.260434486 136.0
71.265358342 166.0
71.270282198 140.0
71.275206054 143.0
71.280129910 138.0
71.285053766 135.0
71.289977622 147.0
71.294901478 163.0
71.299825334 151.0
71.304749190 128.0
71.309673046 121.0
71.314596902 157.0
71.319520758 142.0
71.324444614 143.0
71.329368470 147.0
71.334292326 160.0
71.339216182 161.0
71.344140038 148.0
71.349063894 170.0
71.353987750 133.0
71.358911606 156.0
71.363835462 151.0
71.368759318 140.0
71.373683174 124.0
71.378607030 136.0
71.383530886 135.0
71.388454742 136.0
71.393378598 145.0
71.398302454 131.0
71.403226310 161.0
71.408150166 144.0
71.413074022 157.0
71.417997878 136.0
71.422921734 151.0
71.427845590 140.0
71.432769446 166.0
71.437693302 137.0
71.442617158 148.0
71.447541014 143.0
71.452464870 143.0
71.457388726 139.0
71.462312582 149.0
71.467236438 155.0
71.472160294 131.0
71.477084150 131.0
71.482008007 126.0
71.486931863 151.0
71.491855719 147.0
71.496779575 149.0
71.501703431 149.0
71.506627287 166.0
71.511551143 135.0
71.516474999 148.0
71.521398855 146.0
71.526322711 125.0
71.531246567 160.0
71.536170423 138.0
71.541094279 151.0
71.546018135 157.0
71.550941991 140.0
71.555865847 140.0
71.560789703 150.0
71.565713559 142.0
71.570637415 158.0
71.575561271 131.0
71.580485127 134.0
71.585408983 155.0
71.590332839 151.0
71.595256695 152.0
71.600180551 140.0
71.605104407 141.0
71.610028263 137.0
71.614952119 129.0
71.619875975 137.0
71.624799831 140.0
71.629723687 110.0
71.634647543 173.0
71.639571399 142.0
71.644495255 143.0
71.649419111 139.0
71.654342967 110.0
71.659266823 135.0
71.664190679 126.0
71.669114535 129.0
71.674038391 133.0
71.678962247 130.0
71.683886103 118.0
71.688809959 144.0
71.693733815 131.0
71.698657671 162.0
71.703581527 143.0
71.708505383 133.0
71.713429239 132.0
71.718353095 126.0
71.723276951 125.0
71.728200807 126.0
71.733124663 139.0
71.738048519 151.0
71.742972375 128.0
71.747896231 122.0
71.752820087 130.0
71.757743943 146.0
71.762667799 143.0
71.767591655 161.0
71.772515511 135.0
71.777439367 143.0
71.782363223 151.0
71.787287079 161.0
71.792210935 137.0
71.797134791 126.0
71.802058647 142.0
71.806982503 110.0
71.811906359 131.0
71.816830215 146.0
71.821754071 129.0
71.826677927 123.0
71.831601783 132.0
71.836525639 133.0
71.841449495 131.0
71.846373351 140.0
71.851297208 128.0
71.856221064 124.0
71.861144920 149.0
71.866068776 124.0
71.870992632 129.0
71.875916488 154.0
71.880840344 150.0
71.885764200 144.0
71.890688056 127.0
71.895611912 139.0
71.900535768 145.0
71.905459624 150.0
71.910383480 150.0
71.915307336 133.0
71.920231192 156.0
71.925155048 150.0
71.930078904 144.0
71.935002760 126.0
71.939926616 149.0
71.944850472 142.0
71.949774328 142.0
71.954698184 140.0
71.959622040 135.0
71.964545896 137.0
71.969469752 137.0
71.974393608 164.0
71.979317464 132.0
71.984241320 141.0
71.989165176 141.0
71.994089032 123.0
71.999012888 160.0
72.003936744 124.0
72.008860600 141.0
72.013784456 144.0
72.018708312 120.0
72.023632168 127.0
72.028556024 126.0
72.033479880 132.0
72.038403736 134.0
72.043327592 136.0
72.048251448 120.0
72.053175304 160.0
72.058099160 132.0
72.063023016 160.0
72.067946872 108.0
72.072870728 130.0
72.077794584 136.0
72.082718440 124.0
72.087642296 144.0
72.092566152 153.0
72.097490008 125.0
72.102413864 134.0
72.107337720 138.0
72.112261576 127.0
72.117185432 119.0
72.122109288 141.0
72.127033144 142.0
72.131957000 138.0
72.136880856 141.0
72.141804712 124.0
72.146728568 139.0
72.151652424 135.0
72.156576280 132.0
72.161500136 142.0
72.166423992 155.0
72.171347848 127.0
72.176271704 140.0
72.181195560 124.0
72.186119416 120.0
72.191043272 145.0
72.195967128 156.0
72.200890984 151.0
72.205814840 142.0
72.210738696 156.0
72.215662552 146.0
72.220586409 121.0
72.225510265 141.0
72.230434121 138.0
72.235357977 132.0
72.240281833 121.0
72.245205689 126.0
72.250129545 112.0
72.255053401 139.0
72.259977257 144.0
72.264901113 138.0
72.269824969 121.0
72.274748825 140.0
72.279672681 134.0
72.284596537 132.0
72.289520393 144.0
72.294444249 147.0
72.299368105 108.0
72.304291961 132.0
72.309215817 146.0
72.314139673 134.0
72.319063529 117.0
72.323987385 130.0
72.328911241 133.0
72.333835097 152.0
72.338758953 149.0
72.343682809 105.0
72.348606665 145.0
72.353530521 141.0
72.358454377 119.0
72.363378233 127.0
72.368302089 137.0
72.373225945 132.0
72.378149801 138.0
72.383073657 112.0
72.387997513 123.0
72.392921369 119.0
72.397845225 117.0
72.402769081 120.0
72.407692937 133.0
72.412616793 126.0
72.417540649 116.0
72.422464505 122.0
72.427388361 132.0
72.432312217 136.0
72.437236073 152.0
72.442159929 133.0
72.447083785 119.0
72.452007641 154.0
72.456931497 128.0
72.461855353 134.0
72.466779209 128.0
72.471703065 147.0
72.476626921 129.0
72.481550777 136.0
72.486474633 137.0
72.491398489 154.0
72.496322345 117.0
72.501246201 129.0
72.506170057 130.0
72.511093913 139.0
72.516017769 143.0
72.520941625 135.0
72.525865481 133.0
72.530789337 134.0
72.535713193 133.0
72.540637049 130.0
72.545560905 132.0
72.550484761 133.0
72.555408617 134.0
72.560332473 145.0
72.565256329 142.0
72.570180185 125.0
72.575104041 161.0
72.580027897 123.0
72.584951753 127.0
72.589875609 155.0
72.594799466 140.0
72.599723322 130.0
72.604647178 116.0
72.609571034 123.0
72.614494890 124.0
72.619418746 115.0
72.624342602 131.0
72.629266458 149.0
72.634190314 120.0
72.639114170 134.0
72.644038026 126.0
72.648961882 139.0
72.653885738 127.0
72.658809594 118.0
72.663733450 131.0
72.668657306 135.0
72.673581162 141.0
72.678505018 122.0
72.683428874 127.0
72.688352730 125.0
72.693276586 140.0
72.698200442 149.0
72.703124298 154.0
72.708048154 126.0
72.712972010 134.0
72.717895866 150.0
72.722819722 141.0
72.727743578 138.0
72.732667434 115.0
72.737591290 151.0
72.742515146 128.0
72.747439002 129.0
72.752362858 117.0
72.757286714 134.0
72.762210570 142.0
72.767134426 156.0
72.772058282 110.0
72.776982138 148.0
72.781905994 110.0
72.786829850 140.0
72.791753706 122.0
72.796677562 136.0
72.801601418 119.0
72.806525274 130.0
72.811449130 104.0
72.816372986 135.0
72.821296842 123.0
72.826220698 136.0
72.831144554 128.0
72.836068410 148.0
72.840992266 114.0
72.845916122 116.0
72.850839978 140.0
72.855763834 130.0
72.860687690 140.0
72.865611546 128.0
72.870535402 111.0
72.875459258 120.0
72.880383114 146.0
72.885306970 117.0
72.890230826 128.0
72.895154682 140.0
72.900078538 139.0
72.905002394 121.0
72.909926250 126.0
72.914850106 128.0
72.919773962 130.0
72.924697818 125.0
72.929621674 135.0
72.934545530 128.0
72.939469386 127.0
72.944393242 117.0
72.949317098 139.0
72.954240954 139.0
72.959164810 125.0
72.964088667 141.0
72.969012523 138.0
72.973936379 144.0
72.978860235 138.0
72.983784091 136.0
72.988707947 111.0
72.993631803 145.0
72.998555659 130.0
73.003479515 140.0
73.008403371 152.0
73.013327227 117.0
73.018251083 122.0
73.023174939 132.0
73.028098795 137.0
73.033022651 128.0
73.037946507 140.0
73.042870363 145.0
73.047794219 105.0
73.052718075 123.0
73.057641931 121.0
73.062565787 140.0
73.067489643 145.0
73.072413499 121.0
73.077337355 123.0
73.082261211 122.0
73.087185067 133.0
73.092108923 136.0
73.097032779 134.0
73.101956635 121.0
73.106880491 143.0
73.111804347 138.0
73.116728203 113.0
73.121652059 128.0
73.126575915 117.0
73.131499771 121.0
73.136423627 116.0
73.141347483 118.0
73.146271339 127.0
73.151195195 129.0
73.156119051 133.0
73.161042907 150.0
73.165966763 131.0
73.170890619 144.0
73.175814475 112.0
73.180738331 136.0
73.185662187 129.0
73.190586043 125.0
73.195509899 119.0
73.200433755 146.0
73.205357611 123.0
73.210281467 126.0
73.215205323 138.0
73.220129179 133.0
73.225053035 148.0
73.229976891 123.0
73.234900747 127.0
73.239824603 120.0
73.244748459 112.0
73.249672315 137.0
73.254596171 139.0
73.259520027 125.0
73.264443883 125.0
73.269367739 117.0
73.274291595 127.0
73.279215451 119.0
73.284139307 144.0
73.289063163 141.0
73.293987019 126.0
73.298910875 127.0
73.303834731 131.0
73.308758587 133.0
73.313682443 141.0
73.318606299 116.0
73.323530155 132.0
73.328454011 131.0
73.333377868 142.0
73.338301724 122.0
73.343225580 146.0
73.348149436 128.0
73.353073292 113.0
73.357997148 118.0
73.362921004 133.0
73.367844860 124.0
73.372768716 135.0
73.377692572 129.0
73.382616428 143.0
73.387540284 104.0
73.392464140 118.0
73.397387996 131.0
73.402311852 138.0
73.407235708 132.0
73.412159564 141.0
73.417083420 122.0
73.422007276 123.0
73.426931132 146.0
73.431854988 125.0
73.436778844 136.0
73.441702700 128.0
73.446626556 133.0
73.451550412 135.0
73.456474268 139.0
73.461398124 131.0
73.466321980 134.0
73.471245836 145.0
73.476169692 134.0
73.481093548 132.0
73.486017404 124.0
73.490941260 133.0
73.495865116 136.0
73.500788972 134.0
73.505712828 129.0
73.510636684 123.0
73.515560540 142.0
73.520484396 124.0
73.525408252 136.0
73.530332108 144.0
73.535255964 137.0
73.540179820 147.0
73.545103676 132.0
73.550027532 140.0
73.554951388 120.0
73.559875244 145.0
73.564799100 140.0
73.569722956 121.0
73.574646812 127.0
73.579570668 117.0
73.584494524 128.0
73.589418380 113.0
73.594342236 124.0
73.599266092 143.0
73.604189948 147.0
73.609113804 133.0
73.614037660 134.0
73.618961516 130.0
73.623885372 113.0
73.628809228 113.0
73.633733084 124.0
73.638656940 136.0
73.643580796 140.0
73.648504652 113.0
73.653428508 137.0
73.658352364 121.0
73.663276220 139.0
73.668200076 139.0
73.673123932 124.0
73.678047788 111.0
73.682971644 137.0
73.687895500 110.0
73.692819356 153.0
73.697743212 122.0
73.702667069 108.0
73.707590925 127.0
73.712514781 126.0
73.717438637 121.0
73.722362493 113.0
73.727286349 121.0
73.732210205 126.0
73.737134061 136.0
73.742057917 119.0
73.746981773 138.0
73.751905629 132.0
73.756829485 138.0
73.761753341 114.0
73.766677197 120.0
73.771601053 134.0
73.776524909 145.0
73.781448765 130.0
73.786372621 137.0
73.791296477 129.0
73.796220333 121.0
73.801144189 134.0
73.806068045 97.0
73.810991901 130.0
73.815915757 128.0
73.820839613 103.0
73.825763469 126.0
73.830687325 111.0
73.835611181 139.0
73.840535037 118.0
73.845458893 140.0
73.850382749 143.0
73.855306605 128.0
73.860230461 133.0
73.865154317 139.0
73.870078173 132.0
73.875002029 124.0
73.879925885 127.0
73.884849741 127.0
73.889773597 116.0
73.894697453 100.0
73.899621309 134.0
73.904545165 127.0
73.909469021 125.0
73.914392877 123.0
73.919316733 130.0
73.924240589 124.0
73.929164445 131.0
73.934088301 135.0
73.939012157 154.0
73.943936013 133.0
73.948859869 118.0
73.953783725 137.0
73.958707581 119.0
73.963631437 134.0
73.968555293 129.0
73.973479149 113.0
73.978403005 144.0
73.983326861 108.0
73.988250717 144.0
73.993174573 136.0
73.998098429 132.0
74.003022285 127.0
74.007946141 110.0
74.012869997 148.0
74.017793853 121.0
74.022717709 130.0
74.027641565 116.0
74.032565421 121.0
74.037489277 112.0
74.042413133 125.0
74.047336989 148.0
74.052260845 114.0
74.057184701 124.0
74.062108557 112.0
74.067032413 126.0
74.071956270 99.0
74.076880126 138.0
74.081803982 127.0
74.086727838 132.0
74.091651694 121.0
74.096575550 126.0
74.101499406 113.0
74.106423262 126.0
74.111347118 126.0
74.116270974 106.0
74.121194830 130.0
74.126118686 126.0
74.131042542 130.0
74.135966398 137.0
74.140890254 113.0
74.145814110 145.0
74.150737966 137.0
74.155661822 125.0
74.160585678 119.0
74.165509534 110.0
74.170433390 119.0
74.175357246 130.0
74.180281102 135.0
74.185204958 133.0
74.190128814 127.0
74.195052670 129.0
74.199976526 132.0
74.204900382 140.0
74.209824238 147.0
74.214748094 135.0
74.219671950 131.0
74.224595806 127.0
74.229519662 117.0
74.234443518 143.0
74.239367374 132.0
74.244291230 135.0
74.249215086 135.0
74.254138942 123.0
74.259062798 136.0
74.263986654 135.0
74.268910510 130.0
74.273834366 136.0
74.278758222 119.0
74.283682078 121.0
74.288605934 139.0
74.293529790 135.0
74.298453646 115.0
74.303377502 106.0
74.308301358 119.0
74.313225214 127.0
74.318149070 113.0
74.323072926 138.0
74.327996782 138.0
74.332920638 133.0
74.337844494 112.0
74.342768350 116.0
74.347692206 130.0
74.352616062 112.0
74.357539918 137.0
74.362463774 123.0
74.367387630 129.0
74.372311486 145.0
74.377235342 133.0
74.382159198 137.0
74.387083054 118.0
74.392006910 104.0
74.396930766 129.0
74.401854622 138.0
74.406778478 111.0
74.411702334 124.0
74.416626190 131.0
74.421550046 118.0
74.426473902 115.0
74.431397758 141.0
74.436321614 120.0
74.441245470 112.0
74.446169327 126.0
74.451093183 128.0
74.456017039 110.0
74.460940895 125.0
74.465864751 119.0
74.470788607 125.0
74.475712463 124.0
74.480636319 134.0
74.485560175 124.0
74.490484031 113.0
74.495407887 118.0
74.500331743 122.0
74.505255599 127.0
74.510179455 114.0
74.515103311 130.0
74.520027167 101.0
74.524951023 120.0
74.529874879 123.0
74.534798735 114.0
74.539722591 144.0
74.544646447 127.0
74.549570303 141.0
74.554494159 131.0
74.559418015 125.0
74.564341871 123.0
74.569265727 138.0
74.574189583 123.0
74.579113439 134.0
74.584037295 145.0
74.588961151 143.0
74.593885007 126.0
74.598808863 125.0
74.603732719 102.0
74.608656575 133.0
74.613580431 130.0
74.618504287 111.0
74.623428143 125.0
74.628351999 141.0
74.633275855 124.0
74.638199711 112.0
74.643123567 130.0
74.648047423 133.0
74.652971279 130.0
74.657895135 120.0
74.662818991 122.0
74.667742847 137.0
74.672666703 128.0
74.677590559 122.0
74.682514415 135.0
74.687438271 119.0
74.692362127 134.0
74.697285983 102.0
74.702209839 129.0
74.707133695 126.0
74.712057551 114.0
74.716981407 153.0
74.721905263 132.0
74.726829119 127.0
74.731752975 121.0
74.736676831 131.0
74.741600687 120.0
74.746524543 126.0
74.751448399 140.0
74.756372255 129.0
74.761296111 116.0
74.766219967 112.0
74.771143823 130.0
74.776067679 123.0
74.780991535 137.0
74.785915391 141.0
74.790839247 134.0
74.795763103 129.0
74.800686959 122.0
74.805610815 123.0
74.810534671 144.0
74.815458528 134.0
74.820382384 122.0
74.825306240 115.0
74.830230096 112.0
74.835153952 134.0
74.840077808 114.0
74.845001664 130.0
74.849925520 117.0
74.854849376 133.0
74.859773232 127.0
74.864697088 145.0
74.869620944 146.0
74.874544800 118.0
74.879468656 133.0
74.884392512 120.0
74.889316368 121.0
74.894240224 126.0
74.899164080 130.0
74.904087936 125.0
74.909011792 111.0
74.913935648 117.0
74.918859504 118.0
74.923783360 138.0
74.928707216 111.0
74.933631072 113.0
74.938554928 113.0
74.943478784 140.0
74.948402640 126.0
74.953326496 126.0
74.958250352 136.0
74.963174208 130.0
74.968098064 123.0
74.973021920 137.0
74.977945776 134.0
74.982869632 136.0
74.987793488 112.0
74.992717344 134.0
74.997641200 132.0
