55.001861930 150.0
55.006785786 153.0
55.011709642 143.0
55.016633498 136.0
55.021557354 153.0
55.026481210 137.0
55.031405066 137.0
55.036328922 165.0
55.041252778 150.0
55.046176634 161.0
55.051100490 165.0
55.056024346 149.0
55.060948202 157.0
55.065872058 163.0
55.070795914 167.0
55.075719770 152.0
55.080643626 140.0
55.085567482 122.0
55.090491338 139.0
55.095415194 141.0
55.100339050 159.0
55.105262906 135.0
55.110186762 140.0
55.115110618 152.0
55.120034474 150.0
55.124958330 150.0
55.129882186 146.0
55.134806042 161.0
55.139729898 160.0
55.144653754 163.0
55.149577610 167.0
55.154501466 152.0
55.159425322 142.0
55.164349178 141.0
55.169273034 151.0
55.174196890 143.0
55.179120746 144.0
55.184044602 117.0
55.188968459 162.0
55.193892315 152.0
55.198816171 142.0
55.203740027 144.0
55.208663883 158.0
55.213587739 147.0
55.218511595 144.0
55.223435451 137.0
55.228359307 129.0
55.233283163 144.0
55.238207019 155.0
55.243130875 144.0
55.248054731 134.0
55.252978587 159.0
55.257902443 137.0
55.262826299 142.0
55.267750155 144.0
55.272674011 150.0
55.277597867 150.0
55.282521723 133.0
55.287445579 144.0
55.292369435 136.0
55.297293291 149.0
55.302217147 138.0
55.307141003 144.0
55.312064859 140.0
55.316988715 154.0
55.321912571 144.0
55.326836427 159.0
55.331760283 156.0
55.336684139 144.0
55.341607995 159.0
55.346531851 148.0
55.351455707 143.0
55.356379563 152.0
55.361303419 178.0
55.366227275 142.0
55.371151131 160.0
55.376074987 154.0
55.380998843 166.0
55.385922699 140.0
55.390846555 157.0
55.395770411 135.0
55.400694267 138.0
55.405618123 176.0
55.410541979 150.0
55.415465835 126.0
55.420389691 175.0
55.425313547 156.0
55.430237403 150.0
55.435161259 123.0
55.440085115 144.0
55.445008971 148.0
55.449932827 146.0
55.454856683 138.0
55.459780539 136.0
55.464704395 142.0
55.469628251 160.0
55.474552107 154.0
55.479475963 151.0
55.484399819 108.0
55.489323675 145.0
55.494247531 159.0
55.499171387 147.0
55.504095243 165.0
55.509019099 153.0
55.513942955 146.0
55.518866811 154.0
55.523790667 156.0
55.528714523 163.0
55.533638379 126.0
55.538562235 131.0
55.543486091 158.0
55.548409947 140.0
55.553333803 140.0
55.558257660 171.0
55.563181516 154.0
55.568105372 177.0
55.573029228 155.0
55.577953084 128.0
55.582876940 180.0
55.587800796 147.0
55.592724652 157.0
55.597648508 142.0
55.602572364 164.0
55.607496220 163.0
55.612420076 151.0
55.617343932 157.0
55.622267788 175.0
55.627191644 164.0
55.632115500 155.0
55.637039356 140.0
55.641963212 167.0
55.646887068 144.0
55.651810924 151.0
55.656734780 179.0
55.661658636 161.0
55.666582492 143.0
55.671506348 137.0
55.676430204 158.0
55.681354060 144.0
55.686277916 154.0
55.691201772 139.0
55.696125628 154.0
55.701049484 146.0
55.705973340 157.0
55.710897196 135.0
55.715821052 169.0
55.720744908 142.0
55.725668764 137.0
55.730592620 159.0
55.735516476 156.0
55.740440332 151.0
55.745364188 147.0
55.750288044 143.0
55.755211900 131.0
55.760135756 143.0
55.765059612 156.0
55.769983468 141.0
55.774907324 167.0
55.779831180 149.0
55.784755036 144.0
55.789678892 158.0
55.794602748 162.0
55.799526604 142.0
55.804450460 141.0
55.809374316 147.0
55.814298172 155.0
55.819222028 143.0
55.824145884 147.0
55.829069740 153.0
55.833993596 150.0
55.838917452 144.0
55.843841308 150.0
55.848765164 156.0
55.853689020 131.0
55.858612876 152.0
55.863536732 164.0
55.868460588 167.0
55.873384444 153.0
55.878308300 150.0
55.883232156 144.0
55.888156012 147.0
55.893079868 165.0
55.898003724 150.0
55.902927580 165.0
55.907851436 156.0
55.912775292 156.0
55.917699148 146.0
55.922623004 122.0
55.927546860 138.0
55.932470717 137.0
55.937394573 147.0
55.942318429 143.0
55.947242285 135.0
55.952166141 182.0
55.957089997 167.0
55.962013853 148.0
55.966937709 164.0
55.971861565 135.0
55.976785421 147.0
55.981709277 133.0
55.986633133 148.0
55.991556989 159.0
55.996480845 132.0
56.001404701 142.0
56.006328557 126.0
56.011252413 179.0
56.016176269 144.0
56.021100125 148.0
56.026023981 154.0
56.030947837 156.0
56.035871693 140.0
56.040795549 147.0
56.045719405 138.0
56.050643261 143.0
56.055567117 160.0
56.060490973 155.0
56.065414829 161.0
56.070338685 156.0
56.075262541 144.0
56.080186397 158.0
56.085110253 159.0
56.090034109 136.0
56.094957965 140.0
56.099881821 159.0
56.104805677 142.0
56.109729533 136.0
56.114653389 150.0
56.119577245 148.0
56.124501101 144.0
56.129424957 141.0
56.134348813 159.0
56.139272669 151.0
56.144196525 178.0
56.149120381 150.0
56.154044237 154.0
56.158968093 136.0
56.163891949 150.0
56.168815805 151.0
56.173739661 129.0
56.178663517 165.0
56.183587373 125.0
56.188511229 168.0
56.193435085 118.0
56.198358941 142.0
56.203282797 151.0
56.208206653 141.0
56.213130509 155.0
56.218054365 152.0
56.222978221 170.0
56.227902077 161.0
56.232825933 157.0
56.237749789 163.0
56.242673645 144.0
56.247597501 135.0
56.252521357 126.0
56.257445213 150.0
56.262369069 151.0
56.267292925 147.0
56.272216781 146.0
56.277140637 151.0
56.282064493 153.0
56.286988349 152.0
56.291912205 135.0
56.296836061 151.0
56.301759918 156.0
56.306683774 143.0
56.311607630 143.0
56.316531486 167.0
56.321455342 132.0
56.326379198 150.0
56.331303054 121.0
56.336226910 153.0
56.341150766 144.0
56.346074622 155.0
56.350998478 133.0
56.355922334 156.0
56.360846190 156.0
56.365770046 172.0
56.370693902 168.0
56.375617758 158.0
56.380541614 142.0
56.385465470 164.0
56.390389326 146.0
56.395313182 121.0
56.400237038 156.0
56.405160894 153.0
56.410084750 142.0
56.415008606 137.0
56.419932462 145.0
56.424856318 143.0
56.429780174 156.0
56.434704030 124.0
56.439627886 144.0
56.444551742 149.0
56.449475598 143.0
56.454399454 166.0
56.459323310 172.0
56.464247166 138.0
56.469171022 147.0
56.474094878 146.0
56.479018734 138.0
56.483942590 162.0
56.488866446 140.0
56.493790302 139.0
56.498714158 159.0
56.503638014 166.0
56.508561870 135.0
56.513485726 141.0
56.518409582 140.0
56.523333438 145.0
56.528257294 147.0
56.533181150 140.0
56.538105006 135.0
56.543028862 172.0
56.547952718 135.0
56.552876574 178.0
56.557800430 137.0
56.562724286 145.0
56.567648142 156.0
56.572571998 139.0
56.577495854 156.0
56.582419710 149.0
56.587343566 170.0
56.592267422 129.0
56.597191278 152.0
56.602115134 156.0
56.607038990 153.0
56.611962846 138.0
56.616886702 136.0
56.621810558 148.0
56.626734414 146.0
56.631658270 151.0
56.636582126 156.0
56.641505982 150.0
56.646429838 157.0
56.651353694 155.0
56.656277550 158.0
56.661201406 149.0
56.666125262 152.0
56.671049119 150.0
56.675972975 165.0
56.680896831 159.0
56.685820687 141.0
56.690744543 154.0
56.695668399 161.0
56.700592255 143.0
56.705516111 166.0
56.710439967 135.0
56.715363823 180.0
56.720287679 156.0
56.725211535 160.0
56.730135391 148.0
56.735059247 154.0
56.739983103 133.0
56.744906959 160.0
56.749830815 145.0
56.754754671 172.0
56.759678527 134.0
56.764602383 144.0
56.769526239 147.0
56.774450095 166.0
56.779373951 156.0
56.784297807 179.0
56.789221663 141.0
56.794145519 158.0
56.799069375 162.0
56.803993231 159.0
56.808917087 159.0
56.813840943 130.0
56.818764799 163.0
56.823688655 150.0
56.828612511 127.0
56.833536367 145.0
56.838460223 151.0
56.843384079 151.0
56.848307935 171.0
56.853231791 147.0
56.858155647 136.0
56.863079503 162.0
56.868003359 162.0
56.872927215 153.0
56.877851071 127.0
56.882774927 164.0
56.887698783 160.0
56.892622639 138.0
56.897546495 132.0
56.902470351 144.0
56.907394207 120.0
56.912318063 156.0
56.917241919 143.0
56.922165775 173.0
56.927089631 154.0
56.932013487 155.0
56.936937343 124.0
56.941861199 157.0
56.946785055 146.0
56.951708911 146.0
56.956632767 143.0
56.961556623 162.0
56.966480479 156.0
56.971404335 144.0
56.976328191 162.0
56.981252047 157.0
56.986175903 143.0
56.991099759 132.0
56.996023615 144.0
57.000947471 164.0
57.005871327 146.0
57.010795183 147.0
57.015719039 148.0
57.020642895 155.0
57.025566751 127.0
57.030490607 150.0
57.035414463 132.0
57.040338320 150.0
57.045262176 148.0
57.050186032 148.0
57.055109888 153.0
57.060033744 156.0
57.064957600 146.0
57.069881456 140.0
57.074805312 154.0
57.079729168 168.0
57.084653024 139.0
57.089576880 156.0
57.094500736 174.0
57.099424592 146.0
57.104348448 154.0
57.109272304 156.0
57.114196160 144.0
57.119120016 149.0
57.124043872 159.0
57.128967728 159.0
57.133891584 143.0
57.138815440 155.0
57.143739296 160.0
57.148663152 157.0
57.153587008 156.0
57.158510864 167.0
57.163434720 142.0
57.168358576 154.0
57.173282432 183.0
57.178206288 148.0
57.183130144 139.0
57.188054000 164.0
57.192977856 140.0
57.197901712 155.0
57.202825568 131.0
57.207749424 162.0
57.212673280 152.0
57.217597136 135.0
57.222520992 137.0
57.227444848 122.0
57.232368704 162.0
57.237292560 149.0
57.242216416 154.0
57.247140272 137.0
57.252064128 137.0
57.256987984 140.0
57.261911840 136.0
57.266835696 164.0
57.271759552 131.0
57.276683408 134.0
57.281607264 157.0
57.286531120 157.0
57.291454976 125.0
57.296378832 135.0
57.301302688 151.0
57.306226544 167.0
57.311150400 145.0
57.316074256 154.0
57.320998112 169.0
57.325921968 162.0
57.330845824 167.0
57.335769680 163.0
57.340693536 153.0
57.345617392 150.0
57.350541248 148.0
57.355465104 151.0
57.360388960 135.0
57.365312816 130.0
57.370236672 143.0
57.375160528 139.0
57.380084384 157.0
57.385008240 159.0
57.389932096 148.0
57.394855952 145.0
57.399779808 146.0
57.404703664 153.0
57.409627521 146.0
57.414551377 131.0
57.419475233 163.0
57.424399089 152.0
57.429322945 153.0
57.434246801 157.0
57.439170657 153.0
57.444094513 163.0
57.449018369 157.0
57.453942225 160.0
57.458866081 133.0
57.463789937 144.0
57.468713793 161.0
57.473637649 153.0
57.478561505 136.0
57.483485361 147.0
57.488409217 124.0
57.493333073 143.0
57.498256929 142.0
57.503180785 150.0
57.508104641 137.0
57.513028497 154.0
57.517952353 141.0
57.522876209 124.0
57.527800065 155.0
57.532723921 153.0
57.537647777 172.0
57.542571633 138.0
57.547495489 154.0
57.552419345 157.0
57.557343201 154.0
57.562267057 143.0
57.567190913 143.0
57.572114769 164.0
57.577038625 156.0
57.581962481 161.0
57.586886337 134.0
57.591810193 144.0
57.596734049 150.0
57.601657905 155.0
57.606581761 140.0
57.611505617 155.0
57.616429473 142.0
57.621353329 137.0
57.626277185 145.0
57.631201041 149.0
57.636124897 170.0
57.641048753 148.0
57.645972609 141.0
57.650896465 164.0
57.655820321 132.0
57.660744177 151.0
57.665668033 141.0
57.670591889 141.0
57.675515745 171.0
57.680439601 131.0
57.685363457 158.0
57.690287313 139.0
57.695211169 140.0
57.700135025 175.0
57.705058881 147.0
57.709982737 161.0
57.714906593 161.0
57.719830449 148.0
57.724754305 152.0
57.729678161 149.0
57.734602017 155.0
57.739525873 144.0
57.744449729 138.0
57.749373585 161.0
57.754297441 155.0
57.759221297 140.0
57.764145153 171.0
57.769069009 141.0
57.773992865 146.0
57.778916721 160.0
57.783840578 162.0
57.788764434 169.0
57.793688290 142.0
57.798612146 141.0
57.803536002 166.0
57.808459858 147.0
57.813383714 145.0
57.818307570 151.0
57.823231426 131.0
57.828155282 151.0
57.833079138 152.0
57.838002994 157.0
57.842926850 159.0
57.847850706 143.0
57.852774562 139.0
57.857698418 155.0
57.862622274 154.0
57.867546130 147.0
57.872469986 165.0
57.877393842 165.0
57.882317698 154.0
57.887241554 137.0
57.892165410 142.0
57.897089266 161.0
57.902013122 150.0
57.906936978 168.0
57.911860834 148.0
57.916784690 157.0
57.921708546 154.0
57.926632402 155.0
57.931556258 163.0
57.936480114 120.0
57.941403970 144.0
57.946327826 149.0
57.951251682 138.0
57.956175538 158.0
57.961099394 151.0
57.966023250 147.0
57.970947106 176.0
57.975870962 132.0
57.980794818 172.0
57.985718674 166.0
57.990642530 183.0
57.995566386 159.0
58.000490242 144.0
58.005414098 151.0
58.010337954 156.0
58.015261810 143.0
58.020185666 159.0
58.025109522 164.0
58.030033378 140.0
58.034957234 138.0
58.039881090 168.0
58.044804946 143.0
58.049728802 147.0
58.054652658 156.0
58.059576514 181.0
58.064500370 166.0
58.069424226 164.0
58.074348082 176.0
58.079271938 140.0
58.084195794 123.0
58.089119650 184.0
58.094043506 173.0
58.098967362 161.0
58.103891218 158.0
58.108815074 157.0
58.113738930 179.0
58.118662786 159.0
58.123586642 167.0
58.128510498 161.0
58.133434354 135.0
58.138358210 173.0
58.143282066 178.0
58.148205922 155.0
58.153129779 146.0
58.158053635 165.0
58.162977491 149.0
58.167901347 122.0
58.172825203 183.0
58.177749059 153.0
58.182672915 157.0
58.187596771 148.0
58.192520627 163.0
58.197444483 143.0
58.202368339 153.0
58.207292195 139.0
58.212216051 151.0
58.217139907 154.0
58.222063763 151.0
58.226987619 160.0
58.231911475 171.0
58.236835331 123.0
58.241759187 161.0
58.246683043 145.0
58.251606899 141.0
58.256530755 158.0
58.261454611 160.0
58.266378467 149.0
58.271302323 153.0
58.276226179 167.0
58.281150035 164.0
58.286073891 162.0
58.290997747 148.0
58.295921603 149.0
58.300845459 156.0
58.305769315 170.0
58.310693171 136.0
58.315617027 133.0
58.320540883 146.0
58.325464739 167.0
58.330388595 140.0
58.335312451 140.0
58.340236307 151.0
58.345160163 143.0
58.350084019 144.0
58.355007875 142.0
58.359931731 144.0
58.364855587 150.0
58.369779443 152.0
58.374703299 142.0
58.379627155 172.0
58.384551011 156.0
58.389474867 146.0
58.394398723 140.0
58.399322579 183.0
58.404246435 144.0
58.409170291 158.0
58.414094147 152.0
58.419018003 148.0
58.423941859 177.0
58.428865715 147.0
58.433789571 184.0
58.438713427 144.0
58.443637283 152.0
58.448561139 162.0
58.453484995 164.0
58.458408851 134.0
58.463332707 153.0
58.468256563 136.0
58.473180419 156.0
58.478104275 146.0
58.483028131 163.0
58.487951987 154.0
58.492875843 135.0
58.497799699 168.0
58.502723555 153.0
58.507647411 162.0
58.512571267 160.0
58.517495123 156.0
58.522418980 153.0
58.527342836 162.0
58.532266692 152.0
58.537190548 152.0
58.542114404 167.0
58.547038260 157.0
58.551962116 164.0
58.556885972 159.0
58.561809828 157.0
58.566733684 156.0
58.571657540 158.0
58.576581396 152.0
58.581505252 155.0
58.586429108 146.0
58.591352964 165.0
58.596276820 166.0
58.601200676 137.0
58.606124532 152.0
58.611048388 149.0
58.615972244 145.0
58.620896100 153.0
58.625819956 147.0
58.630743812 160.0
58.635667668 157.0
58.640591524 166.0
58.645515380 148.0
58.650439236 163.0
58.655363092 133.0
58.660286948 155.0
58.665210804 148.0
58.670134660 139.0
58.675058516 155.0
58.679982372 159.0
58.684906228 162.0
58.689830084 163.0
58.694753940 129.0
58.699677796 157.0
58.704601652 143.0
58.709525508 141.0
58.714449364 173.0
58.719373220 159.0
58.724297076 143.0
58.729220932 147.0
58.734144788 127.0
58.739068644 159.0
58.743992500 151.0
58.748916356 184.0
58.753840212 136.0
58.758764068 164.0
58.763687924 152.0
58.768611780 138.0
58.773535636 160.0
58.778459492 160.0
58.783383348 170.0
58.788307204 140.0
58.793231060 156.0
58.798154916 142.0
58.803078772 153.0
58.808002628 152.0
58.812926484 158.0
58.817850340 144.0
58.822774196 149.0
58.827698052 161.0
58.832621908 152.0
58.837545764 152.0
58.842469620 132.0
58.847393476 153.0
58.852317332 165.0
58.857241188 155.0
58.862165044 158.0
58.867088900 147.0
58.872012756 153.0
58.876936612 141.0
58.881860468 154.0
58.886784324 134.0
58.891708181 151.0
58.896632037 160.0
58.901555893 144.0
58.906479749 147.0
58.911403605 158.0
58.916327461 153.0
58.921251317 156.0
58.926175173 165.0
58.931099029 137.0
58.936022885 174.0
58.940946741 145.0
58.945870597 132.0
58.950794453 150.0
58.955718309 142.0
58.960642165 131.0
58.965566021 160.0
58.970489877 111.0
58.975413733 165.0
58.980337589 145.0
58.985261445 176.0
58.990185301 158.0
58.995109157 182.0
59.000033013 136.0
59.004956869 154.0
59.009880725 140.0
59.014804581 158.0
59.019728437 153.0
59.024652293 132.0
59.029576149 160.0
59.034500005 158.0
59.039423861 151.0
59.044347717 170.0
59.049271573 170.0
59.054195429 150.0
59.059119285 135.0
59.064043141 143.0
59.068966997 135.0
59.073890853 144.0
59.078814709 154.0
59.083738565 156.0
59.088662421 141.0
59.093586277 165.0
59.098510133 162.0
59.103433989 156.0
59.108357845 158.0
59.113281701 152.0
59.118205557 141.0
59.123129413 127.0
59.128053269 126.0
59.132977125 145.0
59.137900981 158.0
59.142824837 159.0
59.147748693 144.0
59.152672549 153.0
59.157596405 136.0
59.162520261 141.0
59.167444117 156.0
59.172367973 153.0
59.177291829 167.0
59.182215685 133.0
59.187139541 144.0
59.192063397 138.0
59.196987253 155.0
59.201911109 141.0
59.206834965 170.0
59.211758821 144.0
59.216682677 141.0
59.221606533 142.0
59.226530389 152.0
59.231454245 135.0
59.236378101 157.0
59.241301957 143.0
59.246225813 156.0
59.251149669 140.0
59.256073525 133.0
59.260997382 136.0
59.265921238 141.0
59.270845094 167.0
59.275768950 139.0
59.280692806 138.0
59.285616662 136.0
59.290540518 136.0
59.295464374 151.0
59.300388230 151.0
59.305312086 159.0
59.310235942 142.0
59.315159798 157.0
59.320083654 144.0
59.325007510 120.0
59.329931366 161.0
59.334855222 164.0
59.339779078 148.0
59.344702934 153.0
59.349626790 148.0
59.354550646 138.0
59.359474502 145.0
59.364398358 143.0
59.369322214 143.0
59.374246070 155.0
59.379169926 150.0
59.384093782 160.0
59.389017638 153.0
59.393941494 150.0
59.398865350 170.0
59.403789206 163.0
59.408713062 142.0
59.413636918 145.0
59.418560774 140.0
59.423484630 146.0
59.428408486 135.0
59.433332342 139.0
59.438256198 151.0
59.443180054 159.0
59.448103910 140.0
59.453027766 143.0
59.457951622 161.0
59.462875478 150.0
59.467799334 135.0
59.472723190 171.0
59.477647046 155.0
59.482570902 155.0
59.487494758 151.0
59.492418614 145.0
59.497342470 163.0
59.502266326 159.0
59.507190182 170.0
59.512114038 162.0
59.517037894 144.0
59.521961750 155.0
59.526885606 154.0
59.531809462 144.0
59.536733318 137.0
59.541657174 136.0
59.546581030 154.0
59.551504886 144.0
59.556428742 142.0
59.561352598 170.0
59.566276454 154.0
59.571200310 162.0
59.576124166 161.0
59.581048022 119.0
59.585971878 154.0
59.590895734 159.0
59.595819590 157.0
59.600743446 162.0
59.605667302 167.0
59.610591158 123.0
59.615515014 154.0
59.620438870 142.0
59.625362726 152.0
59.630286582 156.0
59.635210439 162.0
59.640134295 172.0
59.645058151 141.0
59.649982007 156.0
59.654905863 141.0
59.659829719 138.0
59.664753575 149.0
59.669677431 153.0
59.674601287 161.0
59.679525143 153.0
59.684448999 139.0
59.689372855 166.0
59.694296711 143.0
59.699220567 159.0
59.704144423 155.0
59.709068279 131.0
59.713992135 153.0
59.718915991 155.0
59.723839847 165.0
59.728763703 152.0
59.733687559 159.0
59.738611415 154.0
59.743535271 162.0
59.748459127 170.0
59.753382983 155.0
59.758306839 131.0
59.763230695 148.0
59.768154551 160.0
59.773078407 134.0
59.778002263 155.0
59.782926119 144.0
59.787849975 175.0
59.792773831 149.0
59.797697687 146.0
59.802621543 172.0
59.807545399 176.0
59.812469255 151.0
59.817393111 141.0
59.822316967 137.0
59.827240823 175.0
59.832164679 182.0
59.837088535 163.0
59.842012391 163.0
59.846936247 126.0
59.851860103 139.0
59.856783959 139.0
59.861707815 159.0
59.866631671 159.0
59.871555527 166.0
59.876479383 146.0
59.881403239 174.0
59.886327095 146.0
59.891250951 137.0
59.896174807 162.0
59.901098663 160.0
59.906022519 168.0
59.910946375 134.0
59.915870231 149.0
59.920794087 150.0
59.925717943 144.0
59.930641799 159.0
59.935565655 158.0
59.940489511 161.0
59.945413367 149.0
59.950337223 147.0
59.955261079 143.0
59.960184935 139.0
59.965108791 147.0
59.970032647 161.0
59.974956503 155.0
59.979880359 154.0
59.984804215 133.0
59.989728071 136.0
59.994651927 141.0
59.999575783 158.0
60.004499640 153.0
60.009423496 149.0
60.014347352 158.0
60.019271208 145.0
60.024195064 167.0
60.029118920 145.0
60.034042776 170.0
60.038966632 134.0
60.043890488 143.0
60.048814344 148.0
60.053738200 167.0
60.058662056 164.0
60.063585912 133.0
60.068509768 153.0
60.073433624 174.0
60.078357480 161.0
60.083281336 182.0
60.088205192 174.0
60.093129048 161.0
60.098052904 163.0
60.102976760 124.0
60.107900616 164.0
60.112824472 157.0
60.117748328 148.0
60.122672184 150.0
60.127596040 163.0
60.132519896 167.0
60.137443752 149.0
60.142367608 139.0
60.147291464 152.0
60.152215320 139.0
60.157139176 147.0
60.162063032 171.0
60.166986888 156.0
60.171910744 163.0
60.176834600 156.0
60.181758456 147.0
60.186682312 134.0
60.191606168 160.0
60.196530024 163.0
60.201453880 171.0
60.206377736 132.0
60.211301592 159.0
60.216225448 163.0
60.221149304 159.0
60.226073160 188.0
60.230997016 164.0
60.235920872 142.0
60.240844728 157.0
60.245768584 178.0
60.250692440 147.0
60.255616296 153.0
60.260540152 134.0
60.265464008 163.0
60.270387864 184.0
60.275311720 185.0
60.280235576 179.0
60.285159432 132.0
60.290083288 179.0
60.295007144 160.0
60.299931000 162.0
60.304854856 172.0
60.309778712 178.0
60.314702568 166.0
60.319626424 162.0
60.324550280 191.0
60.329474136 188.0
60.334397992 165.0
60.339321848 165.0
60.344245704 161.0
60.349169560 134.0
60.354093416 169.0
60.359017272 165.0
60.363941128 156.0
60.368864984 182.0
60.373788841 178.0
60.378712697 149.0
60.383636553 203.0
60.388560409 168.0
60.393484265 166.0
60.398408121 154.0
60.403331977 144.0
60.408255833 163.0
60.413179689 157.0
60.418103545 187.0
60.423027401 132.0
60.427951257 182.0
60.432875113 181.0
60.437798969 174.0
60.442722825 134.0
60.447646681 155.0
60.452570537 153.0
60.457494393 170.0
60.462418249 162.0
60.467342105 163.0
60.472265961 170.0
60.477189817 183.0
60.482113673 161.0
60.487037529 173.0
60.491961385 172.0
60.496885241 159.0
60.501809097 166.0
60.506732953 141.0
60.511656809 148.0
60.516580665 161.0
60.521504521 148.0
60.526428377 160.0
60.531352233 160.0
60.536276089 169.0
60.541199945 166.0
60.546123801 146.0
60.551047657 162.0
60.555971513 168.0
60.560895369 157.0
60.565819225 149.0
60.570743081 191.0
60.575666937 156.0
60.580590793 165.0
60.585514649 178.0
60.590438505 171.0
60.595362361 152.0
60.600286217 166.0
60.605210073 178.0
60.610133929 148.0
60.615057785 164.0
60.619981641 157.0
60.624905497 163.0
60.629829353 159.0
60.634753209 205.0
60.639677065 175.0
60.644600921 162.0
60.649524777 168.0
60.654448633 164.0
60.659372489 180.0
60.664296345 159.0
60.669220201 192.0
60.674144057 174.0
60.679067913 188.0
60.683991769 164.0
60.688915625 189.0
60.693839481 156.0
60.698763337 218.0
60.703687193 177.0
60.708611049 176.0
60.713534905 185.0
60.718458761 182.0
60.723382617 180.0
60.728306473 207.0
60.733230329 237.0
60.738154185 215.0
60.743078042 216.0
60.748001898 223.0
60.752925754 260.0
60.757849610 284.0
60.762773466 275.0
60.767697322 303.0
60.772621178 329.0
60.777545034 380.0
60.782468890 421.0
60.787392746 479.0
60.792316602 551.0
60.797240458 614.0
60.802164314 726.0
60.807088170 818.0
60.812012026 924.0
60.816935882 1037.0
60.821859738 1082.0
60.826783594 1146.0
60.831707450 1224.0
60.836631306 1204.0
60.841555162 1254.0
60.846479018 1185.0
60.851402874 1100.0
60.856326730 1111.0
60.861250586 1051.0
60.866174442 963.0
60.871098298 858.0
60.876022154 745.0
60.880946010 782.0
60.885869866 682.0
60.890793722 669.0
60.895717578 570.0
60.900641434 593.0
60.905565290 558.0
60.910489146 583.0
60.915413002 550.0
60.920336858 535.0
60.925260714 539.0
60.930184570 496.0
60.935108426 519.0
60.940032282 456.0
60.944956138 439.0
60.949879994 405.0
60.954803850 372.0
60.959727706 315.0
60.964651562 341.0
60.969575418 287.0
60.974499274 269.0
60.979423130 294.0
60.984346986 217.0
60.989270842 225.0
60.994194698 277.0
60.999118554 216.0
61.004042410 260.0
61.008966266 211.0
61.013890122 218.0
61.018813978 217.0
61.023737834 229.0
61.028661690 213.0
61.033585546 204.0
61.038509402 198.0
61.043433258 208.0
61.048357114 202.0
61.053280970 211.0
61.058204826 174.0
61.063128682 186.0
61.068052538 209.0
61.072976394 193.0
61.077900250 174.0
61.082824106 200.0
61.087747962 182.0
61.092671818 186.0
61.097595674 154.0
61.102519530 180.0
61.107443386 187.0
61.112367243 191.0
61.117291099 168.0
61.122214955 195.0
61.127138811 200.0
61.132062667 219.0
61.136986523 181.0
61.141910379 164.0
61.146834235 193.0
61.151758091 170.0
61.156681947 159.0
61.161605803 198.0
61.166529659 169.0
61.171453515 166.0
61.176377371 156.0
61.181301227 170.0
61.186225083 167.0
61.191148939 181.0
61.196072795 200.0
61.200996651 167.0
61.205920507 187.0
61.210844363 201.0
61.215768219 160.0
61.220692075 159.0
61.225615931 178.0
61.230539787 153.0
61.235463643 188.0
61.240387499 167.0
61.245311355 166.0
61.250235211 189.0
61.255159067 160.0
61.260082923 166.0
61.265006779 190.0
61.269930635 145.0
61.274854491 164.0
61.279778347 165.0
61.284702203 171.0
61.289626059 175.0
61.294549915 166.0
61.299473771 174.0
61.304397627 186.0
61.309321483 165.0
61.314245339 164.0
61.319169195 183.0
61.324093051 181.0
61.329016907 160.0
61.333940763 168.0
61.338864619 161.0
61.343788475 147.0
61.348712331 184.0
61.353636187 181.0
61.358560043 178.0
61.363483899 163.0
61.368407755 179.0
61.373331611 157.0
61.378255467 136.0
61.383179323 160.0
61.388103179 154.0
61.393027035 181.0
61.397950891 185.0
61.402874747 157.0
61.407798603 185.0
61.412722459 164.0
61.417646315 125.0
61.422570171 181.0
61.427494027 182.0
61.432417883 178.0
61.437341739 185.0
61.442265595 165.0
61.447189451 170.0
61.452113307 185.0
61.457037163 162.0
61.461961019 165.0
61.466884875 165.0
61.471808731 177.0
61.476732587 153.0
61.481656443 161.0
61.486580300 183.0
61.491504156 165.0
61.496428012 163.0
61.501351868 183.0
61.506275724 173.0
61.511199580 140.0
61.516123436 141.0
61.521047292 166.0
61.525971148 160.0
61.530895004 178.0
61.535818860 162.0
61.540742716 167.0
61.545666572 169.0
61.550590428 154.0
61.555514284 169.0
61.560438140 142.0
61.565361996 191.0
61.570285852 179.0
61.575209708 186.0
61.580133564 168.0
61.585057420 167.0
61.589981276 177.0
61.594905132 161.0
61.599828988 158.0
61.604752844 153.0
61.609676700 183.0
61.614600556 151.0
61.619524412 153.0
61.624448268 174.0
61.629372124 135.0
61.634295980 184.0
61.639219836 165.0
61.644143692 147.0
61.649067548 174.0
61.653991404 155.0
61.658915260 165.0
61.663839116 161.0
61.668762972 158.0
61.673686828 156.0
61.678610684 166.0
61.683534540 163.0
61.688458396 157.0
61.693382252 153.0
61.698306108 141.0
61.703229964 179.0
61.708153820 173.0
61.713077676 147.0
61.718001532 171.0
61.722925388 170.0
61.727849244 151.0
61.732773100 155.0
61.737696956 161.0
61.742620812 161.0
61.747544668 177.0
61.752468524 140.0
61.757392380 165.0
61.762316236 153.0
61.767240092 158.0
61.772163948 164.0
61.777087804 181.0
61.782011660 166.0
61.786935516 174.0
61.791859372 184.0
61.796783228 181.0
61.801707084 158.0
61.806630940 167.0
61.811554796 143.0
61.816478652 161.0
61.821402508 180.0
61.826326364 164.0
61.831250220 173.0
61.836174076 178.0
61.841097932 135.0
61.846021788 153.0
61.850945644 194.0
61.855869501 166.0
61.860793357 168.0
61.865717213 143.0
61.870641069 183.0
61.875564925 156.0
61.880488781 171.0
61.885412637 165.0
61.890336493 186.0
61.895260349 165.0
61.900184205 169.0
61.905108061 161.0
61.910031917 172.0
61.914955773 157.0
61.919879629 162.0
61.924803485 173.0
61.929727341 176.0
61.934651197 168.0
61.939575053 198.0
61.944498909 154.0
61.949422765 144.0
61.954346621 151.0
61.959270477 146.0
61.964194333 143.0
61.969118189 153.0
61.974042045 149.0
61.978965901 161.0
61.983889757 155.0
61.988813613 180.0
61.993737469 149.0
61.998661325 184.0
62.003585181 185.0
62.008509037 153.0
62.013432893 158.0
62.018356749 177.0
62.023280605 162.0
62.028204461 165.0
62.033128317 152.0
62.038052173 158.0
62.042976029 166.0
62.047899885 158.0
62.052823741 191.0
62.057747597 154.0
62.062671453 159.0
62.067595309 159.0
62.072519165 181.0
62.077443021 149.0
62.082366877 169.0
62.087290733 143.0
62.092214589 174.0
62.097138445 142.0
62.102062301 168.0
62.106986157 158.0
62.111910013 174.0
62.116833869 171.0
62.121757725 162.0
62.126681581 154.0
62.131605437 172.0
62.136529293 163.0
62.141453149 165.0
62.146377005 180.0
62.151300861 181.0
62.156224717 171.0
62.161148573 172.0
62.166072429 173.0
62.170996285 154.0
62.175920141 156.0
62.180843997 140.0
62.185767853 154.0
62.190691709 148.0
62.195615565 162.0
62.200539421 158.0
62.205463277 161.0
62.210387133 157.0
62.215310989 157.0
62.220234845 171.0
62.225158702 177.0
62.230082558 160.0
62.235006414 172.0
62.239930270 170.0
62.244854126 163.0
62.249777982 153.0
62.254701838 156.0
62.259625694 166.0
62.264549550 147.0
62.269473406 162.0
62.274397262 155.0
62.279321118 182.0
62.284244974 153.0
62.289168830 149.0
62.294092686 164.0
62.299016542 173.0
62.303940398 191.0
62.308864254 173.0
62.313788110 147.0
62.318711966 154.0
62.323635822 171.0
62.328559678 150.0
62.333483534 167.0
62.338407390 151.0
62.343331246 153.0
62.348255102 170.0
62.353178958 155.0
62.358102814 178.0
62.363026670 160.0
62.367950526 134.0
62.372874382 168.0
62.377798238 165.0
62.382722094 140.0
62.387645950 177.0
62.392569806 150.0
62.397493662 154.0
62.402417518 154.0
62.407341374 171.0
62.412265230 156.0
62.417189086 159.0
62.422112942 161.0
62.427036798 176.0
62.431960654 159.0
62.436884510 147.0
62.441808366 180.0
62.446732222 179.0
62.451656078 153.0
62.456579934 156.0
62.461503790 153.0
62.466427646 167.0
62.471351502 154.0
62.476275358 172.0
62.481199214 169.0
62.486123070 166.0
62.491046926 157.0
62.495970782 174.0
62.500894638 165.0
62.505818494 169.0
62.510742350 156.0
62.515666206 151.0
62.520590062 158.0
62.525513918 161.0
62.530437774 156.0
62.535361630 161.0
62.540285486 168.0
62.545209342 172.0
62.550133198 158.0
62.555057054 162.0
62.559980910 153.0
62.564904766 170.0
62.569828622 164.0
62.574752478 176.0
62.579676334 150.0
62.584600190 171.0
62.589524046 163.0
62.594447903 179.0
62.599371759 171.0
62.604295615 163.0
62.609219471 175.0
62.614143327 160.0
62.619067183 153.0
62.623991039 165.0
62.628914895 178.0
62.633838751 159.0
62.638762607 159.0
62.643686463 156.0
62.648610319 167.0
62.653534175 176.0
62.658458031 191.0
62.663381887 140.0
62.668305743 186.0
62.673229599 171.0
62.678153455 171.0
62.683077311 196.0
62.688001167 159.0
62.692925023 162.0
62.697848879 159.0
62.702772735 184.0
62.707696591 177.0
62.712620447 157.0
62.717544303 163.0
62.722468159 157.0
62.727392015 173.0
62.732315871 171.0
62.737239727 186.0
62.742163583 196.0
62.747087439 180.0
62.752011295 162.0
62.756935151 139.0
62.761859007 171.0
62.766782863 167.0
62.771706719 164.0
62.776630575 173.0
62.781554431 163.0
62.786478287 176.0
62.791402143 187.0
62.796325999 153.0
62.801249855 189.0
62.806173711 154.0
62.811097567 173.0
62.816021423 142.0
62.820945279 162.0
62.825869135 163.0
62.830792991 158.0
62.835716847 160.0
62.840640703 145.0
62.845564559 179.0
62.850488415 188.0
62.855412271 160.0
62.860336127 160.0
62.865259983 176.0
62.870183839 167.0
62.875107695 165.0
62.880031551 173.0
62.884955407 148.0
62.889879263 153.0
62.894803119 179.0
62.899726975 159.0
62.904650831 153.0
62.909574687 165.0
62.914498543 196.0
62.919422399 167.0
62.924346255 167.0
62.929270111 187.0
62.934193967 161.0
62.939117823 165.0
62.944041679 179.0
62.948965535 170.0
62.953889391 160.0
62.958813247 186.0
62.963737104 186.0
62.968660960 178.0
62.973584816 155.0
62.978508672 147.0
62.983432528 152.0
62.988356384 167.0
62.993280240 163.0
62.998204096 182.0
63.003127952 163.0
63.008051808 172.0
63.012975664 168.0
63.017899520 179.0
63.022823376 171.0
63.027747232 153.0
63.032671088 164.0
63.037594944 171.0
63.042518800 202.0
63.047442656 178.0
63.052366512 164.0
63.057290368 177.0
63.062214224 155.0
63.067138080 165.0
63.072061936 164.0
63.076985792 165.0
63.081909648 152.0
63.086833504 177.0
63.091757360 187.0
63.096681216 153.0
63.101605072 180.0
63.106528928 178.0
63.111452784 165.0
63.116376640 191.0
63.121300496 165.0
63.126224352 153.0
63.131148208 176.0
63.136072064 196.0
63.140995920 152.0
63.145919776 175.0
63.150843632 165.0
63.155767488 185.0
63.160691344 183.0
63.165615200 159.0
63.170539056 162.0
63.175462912 157.0
63.180386768 196.0
63.185310624 177.0
63.190234480 192.0
63.195158336 151.0
63.200082192 166.0
63.205006048 189.0
63.209929904 178.0
63.214853760 196.0
63.219777616 187.0
63.224701472 158.0
63.229625328 158.0
63.234549184 164.0
63.239473040 172.0
63.244396896 157.0
63.249320752 159.0
63.254244608 169.0
63.259168464 164.0
63.264092320 184.0
63.269016176 184.0
63.273940032 174.0
63.278863888 186.0
63.283787744 175.0
63.288711600 187.0
63.293635456 178.0
63.298559312 163.0
63.303483168 142.0
63.308407024 181.0
63.313330880 168.0
63.318254736 137.0
63.323178592 179.0
63.328102448 160.0
63.333026304 185.0
63.337950161 177.0
63.342874017 174.0
63.347797873 165.0
63.352721729 184.0
63.357645585 180.0
63.362569441 173.0
63.367493297 170.0
63.372417153 177.0
63.377341009 178.0
63.382264865 197.0
63.387188721 150.0
63.392112577 162.0
63.397036433 164.0
63.401960289 191.0
63.406884145 173.0
63.411808001 185.0
63.416731857 187.0
63.421655713 184.0
63.426579569 172.0
63.431503425 161.0
63.436427281 168.0
63.441351137 177.0
63.446274993 157.0
63.451198849 167.0
63.456122705 164.0
63.461046561 198.0
63.465970417 157.0
63.470894273 175.0
63.475818129 166.0
63.480741985 187.0
63.485665841 177.0
63.490589697 160.0
63.495513553 176.0
63.500437409 175.0
63.505361265 167.0
63.510285121 210.0
63.515208977 177.0
63.520132833 198.0
63.525056689 168.0
63.529980545 169.0
63.534904401 156.0
63.539828257 186.0
63.544752113 210.0
63.549675969 150.0
63.554599825 180.0
63.559523681 172.0
63.564447537 170.0
63.569371393 193.0
63.574295249 196.0
63.579219105 177.0
63.584142961 148.0
63.589066817 171.0
63.593990673 204.0
63.598914529 161.0
63.603838385 196.0
63.608762241 185.0
63.613686097 179.0
63.618609953 168.0
63.623533809 166.0
63.628457665 196.0
63.633381521 187.0
63.638305377 173.0
63.643229233 186.0
63.648153089 181.0
63.653076945 191.0
63.658000801 173.0
63.662924657 207.0
63.667848513 191.0
63.672772369 179.0
63.677696225 180.0
63.682620081 173.0
63.687543937 181.0
63.692467793 183.0
63.697391649 195.0
63.702315505 165.0
63.707239362 183.0
63.712163218 215.0
63.717087074 189.0
63.722010930 202.0
63.726934786 202.0
63.731858642 206.0
63.736782498 170.0
63.741706354 193.0
63.746630210 202.0
63.751554066 181.0
63.756477922 174.0
63.761401778 171.0
63.766325634 193.0
63.771249490 203.0
63.776173346 194.0
63.781097202 175.0
63.786021058 172.0
63.790944914 168.0
63.795868770 168.0
63.800792626 199.0
63.805716482 184.0
63.810640338 164.0
63.815564194 181.0
63.820488050 191.0
63.825411906 181.0
63.830335762 193.0
63.835259618 185.0
63.840183474 170.0
63.845107330 190.0
63.850031186 186.0
63.854955042 179.0
63.859878898 182.0
63.864802754 170.0
63.869726610 207.0
63.874650466 179.0
63.879574322 174.0
63.884498178 183.0
63.889422034 176.0
63.894345890 203.0
63.899269746 201.0
63.904193602 175.0
63.909117458 165.0
63.914041314 179.0
63.918965170 171.0
63.923889026 188.0
63.928812882 179.0
63.933736738 214.0
63.938660594 181.0
63.943584450 217.0
63.948508306 201.0
63.953432162 208.0
63.958356018 208.0
63.963279874 209.0
63.968203730 193.0
63.973127586 194.0
63.978051442 222.0
63.982975298 160.0
63.987899154 188.0
63.992823010 196.0
63.997746866 188.0
64.002670722 195.0
64.007594578 181.0
64.012518434 197.0
64.017442290 224.0
64.022366146 201.0
64.027290002 203.0
64.032213858 197.0
64.037137714 210.0
64.042061570 206.0
64.046985426 225.0
64.051909282 187.0
64.056833138 198.0
64.061756994 190.0
64.066680850 208.0
64.071604706 185.0
64.076528563 195.0
64.081452419 189.0
64.086376275 192.0
64.091300131 192.0
64.096223987 210.0
64.101147843 184.0
64.106071699 209.0
64.110995555 221.0
64.115919411 220.0
64.120843267 233.0
64.125767123 187.0
64.130690979 222.0
64.135614835 209.0
64.140538691 225.0
64.145462547 203.0
64.150386403 225.0
64.155310259 212.0
64.160234115 217.0
64.165157971 209.0
64.170081827 228.0
64.175005683 214.0
64.179929539 234.0
64.184853395 205.0
64.189777251 215.0
64.194701107 193.0
64.199624963 224.0
64.204548819 235.0
64.209472675 215.0
64.214396531 228.0
64.219320387 215.0
64.224244243 242.0
64.229168099 233.0
64.234091955 244.0
64.239015811 220.0
64.243939667 245.0
64.248863523 214.0
64.253787379 237.0
64.258711235 243.0
64.263635091 227.0
64.268558947 228.0
64.273482803 244.0
64.278406659 229.0
64.283330515 242.0
64.288254371 216.0
64.293178227 235.0
64.298102083 241.0
64.303025939 226.0
64.307949795 219.0
64.312873651 263.0
64.317797507 280.0
64.322721363 275.0
64.327645219 280.0
64.332569075 232.0
64.337492931 259.0
64.342416787 255.0
64.347340643 259.0
64.352264499 271.0
64.357188355 260.0
64.362112211 290.0
64.367036067 258.0
64.371959923 259.0
64.376883779 246.0
64.381807635 276.0
64.386731491 280.0
64.391655347 279.0
64.396579203 277.0
64.401503059 303.0
64.406426915 323.0
64.411350771 281.0
64.416274627 261.0
64.421198483 305.0
64.426122339 280.0
64.431046195 320.0
64.435970051 308.0
64.440893907 329.0
64.445817764 305.0
64.450741620 311.0
64.455665476 283.0
64.460589332 336.0
64.465513188 289.0
64.470437044 329.0
64.475360900 309.0
64.480284756 353.0
64.485208612 348.0
64.490132468 321.0
64.495056324 325.0
64.499980180 366.0
64.504904036 376.0
64.509827892 356.0
64.514751748 411.0
64.519675604 375.0
64.524599460 374.0
64.529523316 399.0
64.534447172 366.0
64.539371028 414.0
64.544294884 399.0
64.549218740 404.0
64.554142596 402.0
64.559066452 411.0
64.563990308 404.0
64.568914164 432.0
64.573838020 418.0
64.578761876 438.0
64.583685732 455.0
64.588609588 440.0
64.593533444 462.0
64.598457300 482.0
64.603381156 490.0
64.608305012 497.0
64.613228868 434.0
64.618152724 516.0
64.623076580 503.0
64.628000436 510.0
64.632924292 523.0
64.637848148 576.0
64.642772004 566.0
64.647695860 579.0
64.652619716 545.0
64.657543572 586.0
64.662467428 602.0
64.667391284 640.0
64.672315140 613.0
64.677238996 661.0
64.682162852 686.0
64.687086708 654.0
64.692010564 709.0
64.696934420 729.0
64.701858276 704.0
64.706782132 694.0
64.711705988 731.0
64.716629844 771.0
64.721553700 848.0
64.726477556 831.0
64.731401412 855.0
64.736325268 906.0
64.741249124 927.0
64.746172980 916.0
64.751096836 984.0
64.756020692 991.0
64.760944548 1036.0
64.765868404 1068.0
64.770792260 1137.0
64.775716116 1138.0
64.780639972 1127.0
64.785563828 1251.0
64.790487684 1293.0
64.795411540 1289.0
64.800335396 1302.0
64.805259252 1375.0
64.810183108 1403.0
64.815106965 1435.0
64.820030821 1482.0
64.824954677 1505.0
64.829878533 1501.0
64.834802389 1643.0
64.839726245 1692.0
64.844650101 1681.0
64.849573957 1707.0
64.854497813 1781.0
64.859421669 1793.0
64.864345525 1884.0
64.869269381 1971.0
64.874193237 1968.0
64.879117093 1961.0
64.884040949 2140.0
64.888964805 2001.0
64.893888661 2147.0
64.898812517 2194.0
64.903736373 2170.0
64.908660229 2133.0
64.913584085 2158.0
64.918507941 2312.0
64.923431797 2269.0
64.928355653 2314.0
64.933279509 2369.0
64.938203365 2474.0
64.943127221 2419.0
64.948051077 2393.0
64.952974933 2426.0
64.957898789 2420.0
64.962822645 2510.0
64.967746501 2472.0
64.972670357 2507.0
64.977594213 2484.0
64.982518069 2436.0
64.987441925 2508.0
64.992365781 2421.0
64.997289637 2520.0
65.002213493 2494.0
65.007137349 2471.0
65.012061205 2504.0
65.016985061 2480.0
65.021908917 2470.0
65.026832773 2399.0
65.031756629 2307.0
65.036680485 2453.0
65.041604341 2315.0
65.046528197 2318.0
65.051452053 2328.0
65.056375909 2403.0
65.061299765 2257.0
65.066223621 2264.0
65.071147477 2216.0
65.076071333 2262.0
65.080995189 2231.0
65.085919045 2175.0
65.090842901 2069.0
65.095766757 2114.0
65.100690613 2163.0
65.105614469 1989.0
65.110538325 2045.0
65.115462181 1966.0
65.120386037 1941.0
65.125309893 1960.0
65.130233749 1913.0
65.135157605 1869.0
65.140081461 1851.0
65.145005317 1756.0
65.149929173 1767.0
65.154853029 1785.0
65.159776885 1705.0
65.164700741 1632.0
65.169624597 1670.0
65.174548453 1679.0
65.179472309 1588.0
65.184396165 1562.0
65.189320022 1507.0
65.194243878 1508.0
65.199167734 1384.0
65.204091590 1476.0
65.209015446 1435.0
65.213939302 1366.0
65.218863158 1279.0
65.223787014 1357.0
65.228710870 1261.0
65.233634726 1237.0
65.238558582 1184.0
65.243482438 1245.0
65.248406294 1200.0
65.253330150 1134.0
65.258254006 1118.0
65.263177862 1091.0
65.268101718 1005.0
65.273025574 1008.0
65.277949430 1013.0
65.282873286 991.0
65.287797142 950.0
65.292720998 953.0
65.297644854 894.0
65.302568710 808.0
65.307492566 795.0
65.312416422 783.0
65.317340278 811.0
65.322264134 752.0
65.327187990 750.0
65.332111846 750.0
65.337035702 747.0
65.341959558 710.0
65.346883414 695.0
65.351807270 662.0
65.356731126 624.0
65.361654982 655.0
65.366578838 607.0
65.371502694 631.0
65.376426550 614.0
65.381350406 613.0
65.386274262 562.0
65.391198118 536.0
65.396121974 518.0
65.401045830 473.0
65.405969686 520.0
65.410893542 481.0
65.415817398 489.0
65.420741254 450.0
65.425665110 497.0
65.430588966 474.0
65.435512822 463.0
65.440436678 447.0
65.445360534 442.0
65.450284390 427.0
65.455208246 406.0
65.460132102 416.0
65.465055958 446.0
65.469979814 419.0
65.474903670 383.0
65.479827526 402.0
65.484751382 408.0
65.489675238 389.0
65.494599094 377.0
65.499522950 384.0
65.504446806 371.0
65.509370662 368.0
65.514294518 341.0
65.519218374 378.0
65.524142230 376.0
65.529066086 383.0
65.533989942 353.0
65.538913798 327.0
65.543837654 338.0
65.548761510 337.0
65.553685366 340.0
65.558609223 349.0
65.563533079 338.0
65.568456935 328.0
65.573380791 347.0
65.578304647 309.0
65.583228503 298.0
65.588152359 314.0
65.593076215 299.0
65.598000071 343.0
65.602923927 303.0
65.607847783 320.0
65.612771639 311.0
65.617695495 294.0
65.622619351 289.0
65.627543207 325.0
65.632467063 313.0
65.637390919 311.0
65.642314775 322.0
65.647238631 289.0
65.652162487 289.0
65.657086343 285.0
65.662010199 295.0
65.666934055 267.0
65.671857911 319.0
65.676781767 296.0
65.681705623 303.0
65.686629479 298.0
65.691553335 269.0
65.696477191 259.0
65.701401047 283.0
65.706324903 299.0
65.711248759 271.0
65.716172615 268.0
65.721096471 266.0
65.726020327 272.0
65.730944183 306.0
65.735868039 276.0
65.740791895 281.0
65.745715751 264.0
65.750639607 273.0
65.755563463 277.0
65.760487319 283.0
65.765411175 289.0
65.770335031 243.0
65.775258887 277.0
65.780182743 265.0
65.785106599 279.0
65.790030455 262.0
65.794954311 275.0
65.799878167 279.0
65.804802023 283.0
65.809725879 229.0
65.814649735 241.0
65.819573591 262.0
65.824497447 286.0
65.829421303 232.0
65.834345159 259.0
65.839269015 264.0
65.844192871 237.0
65.849116727 301.0
65.854040583 278.0
65.858964439 232.0
65.863888295 283.0
65.868812151 277.0
65.873736007 289.0
65.878659863 272.0
65.883583719 275.0
65.888507575 259.0
65.893431431 273.0
65.898355287 234.0
65.903279143 269.0
65.908202999 234.0
65.913126855 267.0
65.918050711 280.0
65.922974567 267.0
65.927898424 255.0
65.932822280 276.0
65.937746136 238.0
65.942669992 230.0
65.947593848 268.0
65.952517704 238.0
65.957441560 279.0
65.962365416 282.0
65.967289272 283.0
65.972213128 293.0
65.977136984 232.0
65.982060840 286.0
65.986984696 271.0
65.991908552 242.0
65.996832408 262.0
66.001756264 279.0
66.006680120 266.0
66.011603976 230.0
66.016527832 228.0
66.021451688 224.0
66.026375544 276.0
66.031299400 273.0
66.036223256 283.0
66.041147112 279.0
66.046070968 298.0
66.050994824 273.0
66.055918680 267.0
66.060842536 231.0
66.065766392 265.0
66.070690248 303.0
66.075614104 267.0
66.080537960 270.0
66.085461816 283.0
66.090385672 292.0
66.095309528 274.0
66.100233384 270.0
66.105157240 269.0
66.110081096 306.0
66.115004952 274.0
66.119928808 239.0
66.124852664 282.0
66.129776520 292.0
66.134700376 280.0
66.139624232 267.0
66.144548088 291.0
66.149471944 298.0
66.154395800 264.0
66.159319656 292.0
66.164243512 267.0
66.169167368 235.0
66.174091224 306.0
66.179015080 284.0
66.183938936 237.0
66.188862792 302.0
66.193786648 281.0
66.198710504 304.0
66.203634360 319.0
66.208558216 233.0
66.213482072 302.0
66.218405928 292.0
66.223329784 299.0
66.228253640 294.0
66.233177496 314.0
66.238101352 280.0
66.243025208 317.0
66.247949064 266.0
66.252872920 296.0
66.257796776 280.0
66.262720632 286.0
66.267644488 311.0
66.272568344 301.0
66.277492200 278.0
66.282416056 339.0
66.287339912 292.0
66.292263768 308.0
66.297187625 275.0
66.302111481 285.0
66.307035337 272.0
66.311959193 309.0
66.316883049 292.0
66.321806905 291.0
66.326730761 308.0
66.331654617 294.0
66.336578473 294.0
66.341502329 326.0
66.346426185 291.0
66.351350041 285.0
66.356273897 280.0
66.361197753 320.0
66.366121609 292.0
66.371045465 322.0
66.375969321 326.0
66.380893177 305.0
66.385817033 288.0
66.390740889 309.0
66.395664745 331.0
66.400588601 313.0
66.405512457 303.0
66.410436313 319.0
66.415360169 305.0
66.420284025 305.0
66.425207881 341.0
66.430131737 324.0
66.435055593 301.0
66.439979449 316.0
66.444903305 350.0
66.449827161 326.0
66.454751017 307.0
66.459674873 365.0
66.464598729 309.0
66.469522585 304.0
66.474446441 327.0
66.479370297 326.0
66.484294153 308.0
66.489218009 335.0
66.494141865 337.0
66.499065721 320.0
66.503989577 352.0
66.508913433 318.0
66.513837289 327.0
66.518761145 322.0
66.523685001 325.0
66.528608857 331.0
66.533532713 323.0
66.538456569 332.0
66.543380425 333.0
66.548304281 306.0
66.553228137 340.0
66.558151993 324.0
66.563075849 358.0
66.567999705 360.0
66.572923561 360.0
66.577847417 325.0
66.582771273 333.0
66.587695129 379.0
66.592618985 350.0
66.597542841 365.0
66.602466697 356.0
66.607390553 352.0
66.612314409 344.0
66.617238265 352.0
66.622162121 339.0
66.627085977 348.0
66.632009833 333.0
66.636933689 340.0
66.641857545 362.0
66.646781401 355.0
66.651705257 410.0
66.656629113 372.0
66.661552969 334.0
66.666476826 346.0
66.671400682 355.0
66.676324538 379.0
66.681248394 349.0
66.686172250 350.0
66.691096106 333.0
66.696019962 364.0
66.700943818 358.0
66.705867674 371.0
66.710791530 372.0
66.715715386 358.0
66.720639242 400.0
66.725563098 340.0
66.730486954 320.0
66.735410810 356.0
66.740334666 384.0
66.745258522 381.0
66.750182378 387.0
66.755106234 409.0
66.760030090 360.0
66.764953946 379.0
66.769877802 345.0
66.774801658 355.0
66.779725514 368.0
66.784649370 423.0
66.789573226 360.0
66.794497082 412.0
66.799420938 409.0
66.804344794 391.0
66.809268650 342.0
66.814192506 423.0
66.819116362 423.0
66.824040218 396.0
66.828964074 350.0
66.833887930 370.0
66.838811786 402.0
66.843735642 378.0
66.848659498 412.0
66.853583354 404.0
66.858507210 400.0
66.863431066 420.0
66.868354922 395.0
66.873278778 415.0
66.878202634 408.0
66.883126490 402.0
66.888050346 385.0
66.892974202 401.0
66.897898058 434.0
66.902821914 363.0
66.907745770 398.0
66.912669626 379.0
66.917593482 435.0
66.922517338 438.0
66.927441194 399.0
66.932365050 403.0
66.937288906 413.0
66.942212762 416.0
66.947136618 433.0
66.952060474 450.0
66.956984330 445.0
66.961908186 452.0
66.966832042 422.0
66.971755898 450.0
66.976679754 391.0
66.981603610 435.0
66.986527466 438.0
66.991451322 434.0
66.996375178 429.0
67.001299034 436.0
67.006222890 428.0
67.011146746 469.0
67.016070602 453.0
67.020994458 468.0
67.025918314 500.0
67.030842170 474.0
67.035766026 432.0
67.040689883 453.0
67.045613739 474.0
67.050537595 480.0
67.055461451 500.0
67.060385307 485.0
67.065309163 481.0
67.070233019 453.0
67.075156875 430.0
67.080080731 509.0
67.085004587 505.0
67.089928443 457.0
67.094852299 486.0
67.099776155 507.0
67.104700011 521.0
67.109623867 478.0
67.114547723 484.0
67.119471579 503.0
67.124395435 499.0
67.129319291 461.0
67.134243147 531.0
67.139167003 498.0
67.144090859 496.0
67.149014715 478.0
67.153938571 515.0
67.158862427 497.0
67.163786283 565.0
67.168710139 484.0
67.173633995 536.0
67.178557851 543.0
67.183481707 504.0
67.188405563 518.0
67.193329419 525.0
67.198253275 564.0
67.203177131 513.0
67.208100987 569.0
67.213024843 563.0
67.217948699 547.0
67.222872555 521.0
67.227796411 513.0
67.232720267 543.0
67.237644123 522.0
67.242567979 539.0
67.247491835 530.0
67.252415691 535.0
67.257339547 567.0
67.262263403 565.0
67.267187259 551.0
67.272111115 537.0
67.277034971 548.0
67.281958827 549.0
67.286882683 606.0
67.291806539 552.0
67.296730395 613.0
67.301654251 543.0
67.306578107 547.0
67.311501963 584.0
67.316425819 603.0
67.321349675 596.0
67.326273531 554.0
67.331197387 572.0
67.336121243 608.0
67.341045099 579.0
67.345968955 603.0
67.350892811 632.0
67.355816667 625.0
67.360740523 642.0
67.365664379 620.0
67.370588235 611.0
67.375512091 617.0
67.380435947 644.0
67.385359803 648.0
67.390283659 660.0
67.395207515 603.0
67.400131371 627.0
67.405055227 691.0
67.409979084 642.0
67.414902940 660.0
67.419826796 679.0
67.424750652 682.0
67.429674508 671.0
67.434598364 675.0
67.439522220 731.0
67.444446076 674.0
67.449369932 696.0
67.454293788 687.0
67.459217644 649.0
67.464141500 683.0
67.469065356 708.0
67.473989212 728.0
67.478913068 721.0
67.483836924 715.0
67.488760780 743.0
67.493684636 764.0
67.498608492 735.0
67.503532348 769.0
67.508456204 779.0
67.513380060 771.0
67.518303916 789.0
67.523227772 790.0
67.528151628 770.0
67.533075484 792.0
67.537999340 780.0
67.542923196 816.0
67.547847052 785.0
67.552770908 802.0
67.557694764 792.0
67.562618620 839.0
67.567542476 842.0
67.572466332 903.0
67.577390188 863.0
67.582314044 880.0
67.587237900 857.0
67.592161756 907.0
67.597085612 895.0
67.602009468 893.0
67.606933324 919.0
67.611857180 930.0
67.616781036 975.0
67.621704892 982.0
67.626628748 948.0
67.631552604 967.0
67.636476460 987.0
67.641400316 1021.0
67.646324172 977.0
67.651248028 1003.0
67.656171884 1092.0
67.661095740 1037.0
67.666019596 1083.0
67.670943452 1104.0
67.675867308 1085.0
67.680791164 1187.0
67.685715020 1173.0
67.690638876 1191.0
67.695562732 1252.0
67.700486588 1166.0
67.705410444 1254.0
67.710334300 1310.0
67.715258156 1381.0
67.720182012 1387.0
67.725105868 1501.0
67.730029724 1446.0
67.734953580 1540.0
67.739877436 1563.0
67.744801292 1680.0
67.749725148 1682.0
67.754649004 1823.0
67.759572860 1985.0
67.764496716 1944.0
67.769420572 2100.0
67.774344428 2194.0
67.779268285 2323.0
67.784192141 2465.0
67.789115997 2517.0
67.794039853 2591.0
67.798963709 2687.0
67.803887565 2954.0
67.808811421 2780.0
67.813735277 2996.0
67.818659133 3014.0
67.823582989 3027.0
67.828506845 3087.0
67.833430701 3087.0
67.838354557 3036.0
67.843278413 3245.0
67.848202269 3287.0
67.853126125 3287.0
67.858049981 3305.0
67.862973837 3162.0
67.867897693 3334.0
67.872821549 3090.0
67.877745405 3218.0
67.882669261 3061.0
67.887593117 3228.0
67.892516973 3006.0
67.897440829 3237.0
67.902364685 3068.0
67.907288541 3081.0
67.912212397 3031.0
67.917136253 3004.0
67.922060109 3079.0
67.926983965 3143.0
67.931907821 3154.0
67.936831677 3142.0
67.941755533 3333.0
67.946679389 3315.0
67.951603245 3498.0
67.956527101 3350.0
67.961450957 3728.0
67.966374813 3689.0
67.971298669 3931.0
67.976222525 3795.0
67.981146381 4391.0
67.986070237 4370.0
67.990994093 4633.0
67.995917949 4682.0
68.000841805 5214.0
68.005765661 5232.0
68.010689517 5831.0
68.015613373 5873.0
68.020537229 6516.0
68.025461085 6513.0
68.030384941 7367.0
68.035308797 7533.0
68.040232653 8506.0
68.045156509 8733.0
68.050080365 9949.0
68.055004221 10534.0
68.059928077 11973.0
68.064851933 12620.0
68.069775789 14501.0
68.074699645 15182.0
68.079623501 18319.0
68.084547357 19544.0
68.089471213 24341.0
68.094395069 25933.0
68.099318925 33766.0
68.104242781 36928.0
68.109166637 50756.0
68.114090493 57874.0
68.119014349 85839.0
68.123938205 106237.0
68.128862061 154672.0
68.133785917 190489.0
68.138709773 231145.0
68.143633629 260302.0
68.148557486 275754.0
68.153481342 296588.0
68.158405198 298418.0
68.163329054 308937.0
68.168252910 297604.0
68.173176766 298883.0
68.178100622 266789.0
68.183024478 245456.0
68.187948334 194597.0
68.192872190 156479.0
68.197796046 119520.0
68.202719902 92238.0
68.207643758 75388.0
68.212567614 58202.0
68.217491470 49911.0
68.222415326 39079.0
68.227339182 34059.0
68.232263038 28397.0
68.237186894 25351.0
68.242110750 22180.0
68.247034606 20174.0
68.251958462 19055.0
68.256882318 17627.0
68.261806174 17307.0
68.266730030 17078.0
68.271653886 17342.0
68.276577742 17688.0
68.281501598 18738.0
68.286425454 19935.0
68.291349310 22621.0
68.296273166 25865.0
68.301197022 30489.0
68.306120878 37024.0
68.311044734 46633.0
68.315968590 60047.0
68.320892446 75961.0
68.325816302 94957.0
68.330740158 111449.0
68.335664014 125832.0
68.340587870 136483.0
68.345511726 146271.0
68.350435582 150342.0
68.355359438 151405.0
68.360283294 151132.0
68.365207150 145792.0
68.370131006 135504.0
68.375054862 121867.0
68.379978718 104147.0
68.384902574 85183.0
68.389826430 68629.0
68.394750286 54402.0
68.399674142 43584.0
68.404597998 34462.0
68.409521854 28048.0
68.414445710 23041.0
68.419369566 19435.0
68.424293422 16485.0
68.429217278 14246.0
68.434141134 12358.0
68.439064990 11092.0
68.443988846 9617.0
68.448912702 8857.0
68.453836558 8042.0
68.458760414 7422.0
68.463684270 6880.0
68.468608126 6487.0
68.473531982 5909.0
68.478455838 5545.0
68.483379694 5254.0
68.488303550 4963.0
68.493227406 4744.0
68.498151262 4518.0
68.503075118 4372.0
68.507998974 4002.0
68.512922830 3960.0
68.517846687 3767.0
68.522770543 3693.0
68.527694399 3560.0
68.532618255 3409.0
68.537542111 3200.0
68.542465967 3179.0
68.547389823 3082.0
68.552313679 2963.0
68.557237535 2993.0
68.562161391 2769.0
68.567085247 2732.0
68.572009103 2637.0
68.576932959 2615.0
68.581856815 2532.0
68.586780671 2395.0
68.591704527 2357.0
68.596628383 2317.0
68.601552239 2178.0
68.606476095 2159.0
68.611399951 2107.0
68.616323807 2008.0
68.621247663 2036.0
68.626171519 2052.0
68.631095375 1882.0
68.636019231 1952.0
68.640943087 1863.0
68.645866943 1828.0
68.650790799 1784.0
68.655714655 1667.0
68.660638511 1687.0
68.665562367 1637.0
68.670486223 1606.0
68.675410079 1565.0
68.680333935 1600.0
68.685257791 1590.0
68.690181647 1490.0
68.695105503 1467.0
68.700029359 1444.0
68.704953215 1397.0
68.709877071 1464.0
68.714800927 1395.0
68.719724783 1385.0
68.724648639 1308.0
68.729572495 1335.0
68.734496351 1291.0
68.739420207 1317.0
68.744344063 1291.0
68.749267919 1286.0
68.754191775 1195.0
68.759115631 1184.0
68.764039487 1205.0
68.768963343 1257.0
68.773887199 1182.0
68.778811055 1189.0
68.783734911 1121.0
68.788658767 1184.0
68.793582623 1061.0
68.798506479 1137.0
68.803430335 1057.0
68.808354191 1062.0
68.813278047 1085.0
68.818201903 968.0
68.823125759 1016.0
68.828049615 996.0
68.832973471 924.0
68.837897327 956.0
68.842821183 959.0
68.847745039 899.0
68.852668895 892.0
68.857592751 864.0
68.862516607 939.0
68.867440463 882.0
68.872364319 913.0
68.877288175 961.0
68.882212031 832.0
68.887135887 827.0
68.892059744 852.0
68.896983600 845.0
68.901907456 728.0
68.906831312 852.0
68.911755168 760.0
68.916679024 783.0
68.921602880 807.0
68.926526736 812.0
68.931450592 752.0
68.936374448 772.0
68.941298304 731.0
68.946222160 778.0
68.951146016 752.0
68.956069872 770.0
68.960993728 713.0
68.965917584 789.0
68.970841440 705.0
68.975765296 745.0
68.980689152 732.0
68.985613008 741.0
68.990536864 739.0
68.995460720 650.0
69.000384576 737.0
69.005308432 735.0
69.010232288 698.0
69.015156144 672.0
69.020080000 644.0
69.025003856 697.0
69.029927712 666.0
69.034851568 674.0
69.039775424 669.0
69.044699280 635.0
69.049623136 636.0
69.054546992 639.0
69.059470848 626.0
69.064394704 706.0
69.069318560 637.0
69.074242416 619.0
69.079166272 615.0
69.084090128 651.0
69.089013984 581.0
69.093937840 608.0
69.098861696 609.0
69.103785552 608.0
69.108709408 573.0
69.113633264 584.0
69.118557120 581.0
69.123480976 594.0
69.128404832 555.0
69.133328688 597.0
69.138252544 567.0
69.143176400 565.0
69.148100256 571.0
69.153024112 557.0
69.157947968 584.0
69.162871824 527.0
69.167795680 514.0
69.172719536 545.0
69.177643392 528.0
69.182567248 532.0
69.187491104 508.0
69.192414960 569.0
69.197338816 519.0
69.202262672 532.0
69.207186528 496.0
69.212110384 507.0
69.217034240 488.0
69.221958096 476.0
69.226881952 483.0
69.231805808 493.0
69.236729664 473.0
69.241653520 493.0
69.246577376 462.0
69.251501232 481.0
69.256425088 470.0
69.261348945 508.0
69.266272801 434.0
69.271196657 470.0
69.276120513 433.0
69.281044369 466.0
69.285968225 428.0
69.290892081 456.0
69.295815937 439.0
69.300739793 444.0
69.305663649 482.0
69.310587505 457.0
69.315511361 452.0
69.320435217 436.0
69.325359073 395.0
69.330282929 400.0
69.335206785 482.0
69.340130641 390.0
69.345054497 435.0
69.349978353 406.0
69.354902209 414.0
69.359826065 430.0
69.364749921 449.0
69.369673777 409.0
69.374597633 389.0
69.379521489 444.0
69.384445345 455.0
69.389369201 409.0
69.394293057 381.0
69.399216913 380.0
69.404140769 419.0
69.409064625 387.0
69.413988481 427.0
69.418912337 357.0
69.423836193 419.0
69.428760049 398.0
69.433683905 405.0
69.438607761 357.0
69.443531617 349.0
69.448455473 381.0
69.453379329 381.0
69.458303185 342.0
69.463227041 370.0
69.468150897 370.0
69.473074753 390.0
69.477998609 344.0
69.482922465 383.0
69.487846321 331.0
69.492770177 374.0
69.497694033 340.0
69.502617889 328.0
69.507541745 359.0
69.512465601 403.0
69.517389457 323.0
69.522313313 353.0
69.527237169 345.0
69.532161025 316.0
69.537084881 342.0
69.542008737 377.0
69.546932593 338.0
69.551856449 316.0
69.556780305 298.0
69.561704161 329.0
69.566628017 317.0
69.571551873 342.0
69.576475729 293.0
69.581399585 316.0
69.586323441 327.0
69.591247297 314.0
69.596171153 323.0
69.601095009 305.0
69.606018865 311.0
69.610942721 290.0
69.615866577 315.0
69.620790433 276.0
69.625714289 334.0
69.630638146 307.0
69.635562002 318.0
69.640485858 301.0
69.645409714 273.0
69.650333570 309.0
69.655257426 321.0
69.660181282 305.0
69.665105138 276.0
69.670028994 313.0
69.674952850 301.0
69.679876706 298.0
69.684800562 314.0
69.689724418 291.0
69.694648274 269.0
69.699572130 271.0
69.704495986 298.0
69.709419842 279.0
69.714343698 288.0
69.719267554 290.0
69.724191410 293.0
69.729115266 260.0
69.734039122 277.0
69.738962978 276.0
69.743886834 238.0
69.748810690 299.0
69.753734546 306.0
69.758658402 264.0
69.763582258 273.0
69.768506114 276.0
69.773429970 239.0
69.778353826 287.0
69.783277682 287.0
69.788201538 229.0
69.793125394 256.0
69.798049250 278.0
69.802973106 270.0
69.807896962 257.0
69.812820818 263.0
69.817744674 274.0
69.822668530 296.0
69.827592386 221.0
69.832516242 269.0
69.837440098 276.0
69.842363954 275.0
69.847287810 273.0
69.852211666 232.0
69.857135522 265.0
69.862059378 282.0
69.866983234 270.0
69.871907090 274.0
69.876830946 230.0
69.881754802 241.0
69.886678658 239.0
69.891602514 226.0
69.896526370 237.0
69.901450226 240.0
69.906374082 255.0
69.911297938 212.0
69.916221794 234.0
69.921145650 238.0
69.926069506 259.0
69.930993362 258.0
69.935917218 277.0
69.940841074 260.0
69.945764930 263.0
69.950688786 217.0
69.955612642 214.0
69.960536498 266.0
69.965460354 201.0
69.970384210 225.0
69.975308066 220.0
69.980231922 231.0
69.985155778 233.0
69.990079634 235.0
69.995003490 231.0
69.999927347 228.0
70.004851203 206.0
70.009775059 226.0
70.014698915 226.0
70.019622771 223.0
70.024546627 238.0
70.029470483 203.0
70.034394339 220.0
70.039318195 238.0
70.044242051 219.0
70.049165907 224.0
70.054089763 227.0
70.059013619 240.0
70.063937475 230.0
70.068861331 217.0
70.073785187 223.0
70.078709043 216.0
70.083632899 222.0
70.088556755 219.0
70.093480611 213.0
70.098404467 215.0
70.103328323 211.0
70.108252179 229.0
70.113176035 234.0
70.118099891 231.0
70.123023747 212.0
70.127947603 233.0
70.132871459 213.0
70.137795315 233.0
70.142719171 214.0
70.147643027 201.0
70.152566883 214.0
70.157490739 231.0
70.162414595 219.0
70.167338451 239.0
70.172262307 237.0
70.177186163 210.0
70.182110019 229.0
70.187033875 215.0
70.191957731 210.0
70.196881587 195.0
70.201805443 211.0
70.206729299 194.0
70.211653155 204.0
70.216577011 206.0
70.221500867 256.0
70.226424723 205.0
70.231348579 209.0
70.236272435 206.0
70.241196291 190.0
70.246120147 230.0
70.251044003 207.0
70.255967859 202.0
70.260891715 178.0
70.265815571 202.0
70.270739427 215.0
70.275663283 233.0
70.280587139 220.0
70.285510995 206.0
70.290434851 233.0
70.295358707 223.0
70.300282563 209.0
70.305206419 207.0
70.310130275 204.0
70.315054131 198.0
70.319977987 209.0
70.324901843 203.0
70.329825699 214.0
70.334749555 204.0
70.339673411 231.0
70.344597267 221.0
70.349521123 217.0
70.354444979 206.0
70.359368835 204.0
70.364292691 221.0
70.369216548 170.0
70.374140404 179.0
70.379064260 220.0
70.383988116 223.0
70.388911972 206.0
70.393835828 194.0
70.398759684 187.0
70.403683540 199.0
70.408607396 211.0
70.413531252 193.0
70.418455108 195.0
70.423378964 204.0
70.428302820 192.0
70.433226676 201.0
70.438150532 196.0
70.443074388 190.0
70.447998244 211.0
70.452922100 205.0
70.457845956 202.0
70.462769812 217.0
70.467693668 209.0
70.472617524 224.0
70.477541380 198.0
70.482465236 195.0
70.487389092 205.0
70.492312948 205.0
70.497236804 185.0
70.502160660 213.0
70.507084516 197.0
70.512008372 187.0
70.516932228 225.0
70.521856084 204.0
70.526779940 202.0
70.531703796 206.0
70.536627652 205.0
70.541551508 210.0
70.546475364 174.0
70.551399220 223.0
70.556323076 216.0
70.561246932 198.0
70.566170788 212.0
70.571094644 213.0
70.576018500 203.0
70.580942356 223.0
70.585866212 174.0
70.590790068 204.0
70.595713924 206.0
70.600637780 197.0
70.605561636 190.0
70.610485492 204.0
70.615409348 185.0
70.620333204 186.0
70.625257060 171.0
70.630180916 200.0
70.635104772 208.0
70.640028628 211.0
70.644952484 194.0
70.649876340 188.0
70.654800196 212.0
70.659724052 184.0
70.664647908 199.0
70.669571764 195.0
70.674495620 183.0
70.679419476 196.0
70.684343332 188.0
70.689267188 187.0
70.694191044 168.0
70.699114900 190.0
70.704038756 201.0
70.708962612 199.0
70.713886468 178.0
70.718810324 183.0
70.723734180 197.0
70.728658036 181.0
70.733581892 193.0
70.738505748 198.0
70.743429605 183.0
70.748353461 198.0
70.753277317 204.0
70.758201173 196.0
70.763125029 173.0
70.768048885 175.0
70.772972741 203.0
70.777896597 197.0
70.782820453 170.0
70.787744309 189.0
70.792668165 175.0
70.797592021 197.0
70.802515877 203.0
70.807439733 177.0
70.812363589 180.0
70.817287445 199.0
70.822211301 207.0
70.827135157 171.0
70.832059013 198.0
70.836982869 166.0
70.841906725 179.0
70.846830581 207.0
70.851754437 157.0
70.856678293 197.0
70.861602149 195.0
70.866526005 196.0
70.871449861 206.0
70.876373717 192.0
70.881297573 171.0
70.886221429 183.0
70.891145285 198.0
70.896069141 192.0
70.900992997 188.0
70.905916853 179.0
70.910840709 175.0
70.915764565 174.0
70.920688421 181.0
70.925612277 214.0
70.930536133 207.0
70.935459989 179.0
70.940383845 190.0
70.945307701 195.0
70.950231557 192.0
70.955155413 188.0
70.960079269 174.0
70.965003125 175.0
70.969926981 199.0
70.974850837 196.0
70.979774693 208.0
70.984698549 199.0
70.989622405 184.0
70.994546261 192.0
70.999470117 190.0
71.004393973 196.0
71.009317829 180.0
71.014241685 180.0
71.019165541 187.0
71.024089397 191.0
71.029013253 204.0
71.033937109 182.0
71.038860965 169.0
71.043784821 166.0
71.048708677 188.0
71.053632533 187.0
71.058556389 198.0
71.063480245 194.0
71.068404101 195.0
71.073327957 172.0
71.078251813 185.0
71.083175669 173.0
71.088099525 187.0
71.093023381 166.0
71.097947237 191.0
71.102871093 168.0
71.107794949 193.0
71.112718806 171.0
71.117642662 170.0
71.122566518 184.0
71.127490374 193.0
71.132414230 183.0
71.137338086 173.0
71.142261942 192.0
71.147185798 183.0
71.152109654 172.0
71.157033510 199.0
71.161957366 152.0
71.166881222 193.0
71.171805078 203.0
71.176728934 201.0
71.181652790 181.0
71.186576646 201.0
71.191500502 172.0
71.196424358 158.0
71.201348214 169.0
71.206272070 197.0
71.211195926 165.0
71.216119782 181.0
71.221043638 187.0
71.225967494 197.0
71.230891350 181.0
71.235815206 167.0
71.240739062 162.0
71.245662918 196.0
71.250586774 185.0
71.255510630 177.0
71.260434486 183.0
71.265358342 192.0
71.270282198 175.0
71.275206054 170.0
71.280129910 171.0
71.285053766 167.0
71.289977622 178.0
71.294901478 193.0
71.299825334 174.0
71.304749190 159.0
71.309673046 164.0
71.314596902 198.0
71.319520758 176.0
71.324444614 190.0
71.329368470 181.0
71.334292326 178.0
71.339216182 165.0
71.344140038 169.0
71.349063894 205.0
71.353987750 189.0
71.358911606 205.0
71.363835462 180.0
71.368759318 166.0
71.373683174 178.0
71.378607030 188.0
71.383530886 176.0
71.388454742 168.0
71.393378598 161.0
71.398302454 189.0
71.403226310 200.0
71.408150166 190.0
71.413074022 177.0
71.417997878 154.0
71.422921734 185.0
71.427845590 179.0
71.432769446 172.0
71.437693302 169.0
71.442617158 156.0
71.447541014 191.0
71.452464870 166.0
71.457388726 161.0
71.462312582 186.0
71.467236438 150.0
71.472160294 180.0
71.477084150 181.0
71.482008007 212.0
71.486931863 180.0
71.491855719 208.0
71.496779575 176.0
71.501703431 170.0
71.506627287 177.0
71.511551143 161.0
71.516474999 171.0
71.521398855 157.0
71.526322711 170.0
71.531246567 194.0
71.536170423 157.0
71.541094279 159.0
71.546018135 189.0
71.550941991 182.0
71.555865847 178.0
71.560789703 180.0
71.565713559 175.0
71.570637415 186.0
71.575561271 196.0
71.580485127 182.0
71.585408983 193.0
71.590332839 162.0
71.595256695 187.0
71.600180551 207.0
71.605104407 179.0
71.610028263 160.0
71.614952119 188.0
71.619875975 171.0
71.624799831 162.0
71.629723687 172.0
71.634647543 183.0
71.639571399 175.0
71.644495255 177.0
71.649419111 188.0
71.654342967 190.0
71.659266823 177.0
71.664190679 182.0
71.669114535 159.0
71.674038391 180.0
71.678962247 174.0
71.683886103 172.0
71.688809959 174.0
71.693733815 170.0
71.698657671 180.0
71.703581527 152.0
71.708505383 177.0
71.713429239 193.0
71.718353095 177.0
71.723276951 173.0
71.728200807 152.0
71.733124663 187.0
71.738048519 200.0
71.742972375 181.0
71.747896231 189.0
71.752820087 167.0
71.757743943 170.0
71.762667799 175.0
71.767591655 160.0
71.772515511 164.0
71.777439367 171.0
71.782363223 168.0
71.787287079 158.0
71.792210935 159.0
71.797134791 165.0
71.802058647 180.0
71.806982503 192.0
71.811906359 168.0
71.816830215 163.0
71.821754071 159.0
71.826677927 161.0
71.831601783 169.0
71.836525639 196.0
71.841449495 162.0
71.846373351 159.0
71.851297208 187.0
71.856221064 183.0
71.861144920 163.0
71.866068776 171.0
71.870992632 179.0
71.875916488 191.0
71.880840344 174.0
71.885764200 178.0
71.890688056 175.0
71.895611912 184.0
71.900535768 158.0
71.905459624 221.0
71.910383480 166.0
71.915307336 171.0
71.920231192 178.0
71.925155048 172.0
71.930078904 195.0
71.935002760 159.0
71.939926616 158.0
71.944850472 189.0
71.949774328 176.0
71.954698184 152.0
71.959622040 189.0
71.964545896 175.0
71.969469752 164.0
71.974393608 162.0
71.979317464 164.0
71.984241320 169.0
71.989165176 180.0
71.994089032 158.0
71.999012888 152.0
72.003936744 188.0
72.008860600 182.0
72.013784456 153.0
72.018708312 186.0
72.023632168 169.0
72.028556024 167.0
72.033479880 180.0
72.038403736 163.0
72.043327592 164.0
72.048251448 177.0
72.053175304 165.0
72.058099160 160.0
72.063023016 188.0
72.067946872 151.0
72.072870728 186.0
72.077794584 164.0
72.082718440 158.0
72.087642296 170.0
72.092566152 158.0
72.097490008 171.0
72.102413864 179.0
72.107337720 177.0
72.112261576 180.0
72.117185432 168.0
72.122109288 184.0
72.127033144 154.0
72.131957000 154.0
72.136880856 166.0
72.141804712 181.0
72.146728568 195.0
72.151652424 148.0
72.156576280 168.0
72.161500136 181.0
72.166423992 199.0
72.171347848 173.0
72.176271704 188.0
72.181195560 163.0
72.186119416 162.0
72.191043272 164.0
72.195967128 168.0
72.200890984 158.0
72.205814840 172.0
72.210738696 180.0
72.215662552 165.0
72.220586409 173.0
72.225510265 182.0
72.230434121 160.0
72.235357977 214.0
72.240281833 162.0
72.245205689 171.0
72.250129545 175.0
72.255053401 181.0
72.259977257 174.0
72.264901113 173.0
72.269824969 175.0
72.274748825 153.0
72.279672681 160.0
72.284596537 187.0
72.289520393 174.0
72.294444249 178.0
72.299368105 156.0
72.304291961 166.0
72.309215817 162.0
72.314139673 168.0
72.319063529 176.0
72.323987385 175.0
72.328911241 164.0
72.333835097 174.0
72.338758953 163.0
72.343682809 177.0
72.348606665 172.0
72.353530521 186.0
72.358454377 179.0
72.363378233 156.0
72.368302089 158.0
72.373225945 160.0
72.378149801 170.0
72.383073657 168.0
72.387997513 167.0
72.392921369 182.0
72.397845225 152.0
72.402769081 179.0
72.407692937 182.0
72.412616793 156.0
72.417540649 148.0
72.422464505 183.0
72.427388361 148.0
72.432312217 171.0
72.437236073 174.0
72.442159929 171.0
72.447083785 193.0
72.452007641 184.0
72.456931497 183.0
72.461855353 153.0
72.466779209 167.0
72.471703065 149.0
72.476626921 156.0
72.481550777 155.0
72.486474633 180.0
72.491398489 188.0
72.496322345 200.0
72.501246201 165.0
72.506170057 163.0
72.511093913 167.0
72.516017769 188.0
72.520941625 155.0
72.525865481 160.0
72.530789337 168.0
72.535713193 182.0
72.540637049 181.0
72.545560905 175.0
72.550484761 181.0
72.555408617 160.0
72.560332473 189.0
72.565256329 154.0
72.570180185 170.0
72.575104041 158.0
72.580027897 147.0
72.584951753 158.0
72.589875609 177.0
72.594799466 178.0
72.599723322 162.0
72.604647178 172.0
72.609571034 153.0
72.614494890 171.0
72.619418746 193.0
72.624342602 156.0
72.629266458 188.0
72.634190314 157.0
72.639114170 179.0
72.644038026 176.0
72.648961882 158.0
72.653885738 178.0
72.658809594 186.0
72.663733450 180.0
72.668657306 166.0
72.673581162 150.0
72.678505018 176.0
72.683428874 154.0
72.688352730 175.0
72.693276586 169.0
72.698200442 165.0
72.703124298 151.0
72.708048154 176.0
72.712972010 168.0
72.717895866 178.0
72.722819722 158.0
72.727743578 168.0
72.732667434 151.0
72.737591290 157.0
72.742515146 165.0
72.747439002 191.0
72.752362858 185.0
72.757286714 167.0
72.762210570 178.0
72.767134426 156.0
72.772058282 159.0
72.776982138 158.0
72.781905994 165.0
72.786829850 154.0
72.791753706 152.0
72.796677562 168.0
72.801601418 191.0
72.806525274 165.0
72.811449130 150.0
72.816372986 141.0
72.821296842 173.0
72.826220698 180.0
72.831144554 193.0
72.836068410 167.0
72.840992266 158.0
72.845916122 165.0
72.850839978 149.0
72.855763834 170.0
72.860687690 187.0
72.865611546 165.0
72.870535402 166.0
72.875459258 170.0
72.880383114 157.0
72.885306970 184.0
72.890230826 168.0
72.895154682 190.0
72.900078538 176.0
72.905002394 170.0
72.909926250 179.0
72.914850106 177.0
72.919773962 188.0
72.924697818 174.0
72.929621674 159.0
72.934545530 168.0
72.939469386 191.0
72.944393242 143.0
72.949317098 155.0
72.954240954 180.0
72.959164810 166.0
72.964088667 176.0
72.969012523 147.0
72.973936379 180.0
72.978860235 174.0
72.983784091 164.0
72.988707947 172.0
72.993631803 171.0
72.998555659 158.0
73.003479515 179.0
73.008403371 156.0
73.013327227 139.0
73.018251083 197.0
73.023174939 155.0
73.028098795 170.0
73.033022651 168.0
73.037946507 174.0
73.042870363 178.0
73.047794219 159.0
73.052718075 150.0
73.057641931 163.0
73.062565787 162.0
73.067489643 146.0
73.072413499 173.0
73.077337355 172.0
73.082261211 146.0
73.087185067 172.0
73.092108923 167.0
73.097032779 158.0
73.101956635 133.0
73.106880491 158.0
73.111804347 174.0
73.116728203 147.0
73.121652059 168.0
73.126575915 194.0
73.131499771 187.0
73.136423627 160.0
73.141347483 152.0
73.146271339 190.0
73.151195195 171.0
73.156119051 173.0
73.161042907 162.0
73.165966763 161.0
73.170890619 168.0
73.175814475 172.0
73.180738331 160.0
73.185662187 152.0
73.190586043 157.0
73.195509899 174.0
73.200433755 169.0
73.205357611 147.0
73.210281467 151.0
73.215205323 164.0
73.220129179 166.0
73.225053035 162.0
73.229976891 173.0
73.234900747 166.0
73.239824603 149.0
73.244748459 137.0
73.249672315 165.0
73.254596171 170.0
73.259520027 164.0
73.264443883 160.0
73.269367739 176.0
73.274291595 181.0
73.279215451 168.0
73.284139307 155.0
73.289063163 166.0
73.293987019 170.0
73.298910875 164.0
73.303834731 174.0
73.308758587 176.0
73.313682443 171.0
73.318606299 173.0
73.323530155 152.0
73.328454011 169.0
73.333377868 148.0
73.338301724 171.0
73.343225580 176.0
73.348149436 155.0
73.353073292 167.0
73.357997148 143.0
73.362921004 174.0
73.367844860 159.0
73.372768716 158.0
73.377692572 168.0
73.382616428 174.0
73.387540284 157.0
73.392464140 155.0
73.397387996 197.0
73.402311852 142.0
73.407235708 161.0
73.412159564 156.0
73.417083420 159.0
73.422007276 158.0
73.426931132 177.0
73.431854988 183.0
73.436778844 150.0
73.441702700 165.0
73.446626556 168.0
73.451550412 162.0
73.456474268 150.0
73.461398124 179.0
73.466321980 137.0
73.471245836 150.0
73.476169692 161.0
73.481093548 174.0
73.486017404 144.0
73.490941260 179.0
73.495865116 172.0
73.500788972 158.0
73.505712828 176.0
73.510636684 158.0
73.515560540 171.0
73.520484396 151.0
73.525408252 172.0
73.530332108 169.0
73.535255964 196.0
73.540179820 176.0
73.545103676 145.0
73.550027532 163.0
73.554951388 139.0
73.559875244 150.0
73.564799100 173.0
73.569722956 177.0
73.574646812 164.0
73.579570668 169.0
73.584494524 171.0
73.589418380 161.0
73.594342236 150.0
73.599266092 168.0
73.604189948 168.0
73.609113804 154.0
73.614037660 169.0
73.618961516 171.0
73.623885372 153.0
73.628809228 152.0
73.633733084 166.0
73.638656940 155.0
73.643580796 166.0
73.648504652 165.0
73.653428508 166.0
73.658352364 185.0
73.663276220 191.0
73.668200076 128.0
73.673123932 142.0
73.678047788 144.0
73.682971644 157.0
73.687895500 161.0
73.692819356 163.0
73.697743212 158.0
73.702667069 148.0
73.707590925 143.0
73.712514781 173.0
73.717438637 159.0
73.722362493 137.0
73.727286349 171.0
73.732210205 154.0
73.737134061 156.0
73.742057917 173.0
73.746981773 178.0
73.751905629 166.0
73.756829485 145.0
73.761753341 163.0
73.766677197 147.0
73.771601053 175.0
73.776524909 157.0
73.781448765 163.0
73.786372621 146.0
73.791296477 159.0
73.796220333 151.0
73.801144189 180.0
73.806068045 169.0
73.810991901 144.0
73.815915757 155.0
73.820839613 165.0
73.825763469 199.0
73.830687325 150.0
73.835611181 177.0
73.840535037 162.0
73.845458893 155.0
73.850382749 159.0
73.855306605 173.0
73.860230461 158.0
73.865154317 171.0
73.870078173 182.0
73.875002029 151.0
73.879925885 143.0
73.884849741 151.0
73.889773597 139.0
73.894697453 171.0
73.899621309 145.0
73.904545165 170.0
73.909469021 142.0
73.914392877 153.0
73.919316733 158.0
73.924240589 198.0
73.929164445 151.0
73.934088301 147.0
73.939012157 153.0
73.943936013 165.0
73.948859869 181.0
73.953783725 180.0
73.958707581 148.0
73.963631437 165.0
73.968555293 160.0
73.973479149 170.0
73.978403005 188.0
73.983326861 171.0
73.988250717 173.0
73.993174573 160.0
73.998098429 162.0
74.003022285 174.0
74.007946141 160.0
74.012869997 147.0
74.017793853 182.0
74.022717709 171.0
74.027641565 160.0
74.032565421 159.0
74.037489277 177.0
74.042413133 159.0
74.047336989 184.0
74.052260845 145.0
74.057184701 178.0
74.062108557 175.0
74.067032413 171.0
74.071956270 158.0
74.076880126 140.0
74.081803982 174.0
74.086727838 158.0
74.091651694 166.0
74.096575550 151.0
74.101499406 170.0
74.106423262 149.0
74.111347118 166.0
74.116270974 200.0
74.121194830 154.0
74.126118686 153.0
74.131042542 143.0
74.135966398 176.0
74.140890254 162.0
74.145814110 136.0
74.150737966 164.0
74.155661822 165.0
74.160585678 158.0
74.165509534 160.0
74.170433390 169.0
74.175357246 189.0
74.180281102 163.0
74.185204958 167.0
74.190128814 172.0
74.195052670 154.0
74.199976526 167.0
74.204900382 159.0
74.209824238 180.0
74.214748094 159.0
74.219671950 170.0
74.224595806 151.0
74.229519662 172.0
74.234443518 163.0
74.239367374 167.0
74.244291230 151.0
74.249215086 183.0
74.254138942 149.0
74.259062798 143.0
74.263986654 175.0
74.268910510 165.0
74.273834366 136.0
74.278758222 170.0
74.283682078 157.0
74.288605934 165.0
74.293529790 170.0
74.298453646 164.0
74.303377502 161.0
74.308301358 158.0
74.313225214 145.0
74.318149070 176.0
74.323072926 159.0
74.327996782 153.0
74.332920638 154.0
74.337844494 197.0
74.342768350 148.0
74.347692206 180.0
74.352616062 154.0
74.357539918 168.0
74.362463774 172.0
74.367387630 174.0
74.372311486 168.0
74.377235342 161.0
74.382159198 157.0
74.387083054 181.0
74.392006910 146.0
74.396930766 157.0
74.401854622 162.0
74.406778478 155.0
74.411702334 149.0
74.416626190 163.0
74.421550046 181.0
74.426473902 167.0
74.431397758 183.0
74.436321614 181.0
74.441245470 157.0
74.446169327 161.0
74.451093183 185.0
74.456017039 170.0
74.460940895 153.0
74.465864751 152.0
74.470788607 151.0
74.475712463 158.0
74.480636319 172.0
74.485560175 156.0
74.490484031 152.0
74.495407887 145.0
74.500331743 166.0
74.505255599 156.0
74.510179455 167.0
74.515103311 145.0
74.520027167 155.0
74.524951023 159.0
74.529874879 177.0
74.534798735 147.0
74.539722591 162.0
74.544646447 155.0
74.549570303 137.0
74.554494159 188.0
74.559418015 179.0
74.564341871 160.0
74.569265727 150.0
74.574189583 148.0
74.579113439 155.0
74.584037295 153.0
74.588961151 158.0
74.593885007 173.0
74.598808863 177.0
74.603732719 149.0
74.608656575 145.0
74.613580431 160.0
74.618504287 168.0
74.623428143 136.0
74.628351999 147.0
74.633275855 172.0
74.638199711 171.0
74.643123567 134.0
74.648047423 154.0
74.652971279 160.0
74.657895135 164.0
74.662818991 136.0
74.667742847 162.0
74.672666703 160.0
74.677590559 163.0
74.682514415 164.0
74.687438271 159.0
74.692362127 170.0
74.697285983 165.0
74.702209839 155.0
74.707133695 165.0
74.712057551 150.0
74.716981407 151.0
74.721905263 156.0
74.726829119 168.0
74.731752975 162.0
74.736676831 150.0
74.741600687 168.0
74.746524543 168.0
74.751448399 162.0
74.756372255 170.0
74.761296111 156.0
74.766219967 170.0
74.771143823 171.0
74.776067679 151.0
74.780991535 168.0
74.785915391 130.0
74.790839247 173.0
74.795763103 144.0
74.800686959 147.0
74.805610815 144.0
74.810534671 178.0
74.815458528 166.0
74.820382384 157.0
74.825306240 142.0
74.830230096 155.0
74.835153952 154.0
74.840077808 163.0
74.845001664 163.0
74.849925520 154.0
74.854849376 166.0
74.859773232 185.0
74.864697088 151.0
74.869620944 151.0
74.874544800 156.0
74.879468656 179.0
74.884392512 177.0
74.889316368 168.0
74.894240224 144.0
74.899164080 159.0
74.904087936 172.0
74.909011792 166.0
74.913935648 147.0
74.918859504 169.0
74.923783360 140.0
74.928707216 153.0
74.933631072 150.0
74.938554928 156.0
74.943478784 141.0
74.948402640 180.0
74.953326496 149.0
74.958250352 157.0
74.963174208 176.0
74.968098064 166.0
74.973021920 166.0
74.977945776 143.0
74.982869632 172.0
74.987793488 155.0
74.992717344 152.0
74.997641200 147.0
