30.002461930 114.0
30.007385786 114.0
30.012309642 120.0
30.017233498 99.0
30.022157354 106.0
30.027081210 116.0
30.032005066 100.0
30.036928922 107.0
30.041852778 105.0
30.046776634 112.0
30.051700490 96.0
30.056624346 113.0
30.061548202 131.0
30.066472058 92.0
30.071395914 114.0
30.076319770 108.0
30.081243626 115.0
30.086167482 112.0
30.091091338 93.0
30.096015194 97.0
30.100939050 119.0
30.105862906 102.0
30.110786762 100.0
30.115710618 108.0
30.120634474 100.0
30.125558330 95.0
30.130482186 119.0
30.135406042 98.0
30.140329898 118.0
30.145253754 102.0
30.150177610 103.0
30.155101466 109.0
30.160025322 107.0
30.164949178 91.0
30.169873034 101.0
30.174796890 116.0
30.179720746 111.0
30.184644602 124.0
30.189568458 118.0
30.194492314 106.0
30.199416170 113.0
30.204340026 98.0
30.209263882 100.0
30.214187738 93.0
30.219111594 104.0
30.224035450 100.0
30.228959306 112.0
30.233883162 93.0
30.238807018 105.0
30.243730874 98.0
30.248654730 108.0
30.253578587 115.0
30.258502443 101.0
30.263426299 109.0
30.268350155 110.0
30.273274011 95.0
30.278197867 113.0
30.283121723 113.0
30.288045579 107.0
30.292969435 93.0
30.297893291 105.0
30.302817147 112.0
30.307741003 100.0
30.312664859 100.0
30.317588715 98.0
30.322512571 107.0
30.327436427 116.0
30.332360283 83.0
30.337284139 115.0
30.342207995 93.0
30.347131851 112.0
30.352055707 106.0
30.356979563 107.0
30.361903419 92.0
30.366827275 102.0
30.371751131 105.0
30.376674987 111.0
30.381598843 94.0
30.386522699 89.0
30.391446555 101.0
30.396370411 100.0
30.401294267 90.0
30.406218123 105.0
30.411141979 98.0
30.416065835 97.0
30.420989691 97.0
30.425913547 118.0
30.430837403 110.0
30.435761259 112.0
30.440685115 118.0
30.445608971 109.0
30.450532827 112.0
30.455456683 106.0
30.460380539 116.0
30.465304395 100.0
30.470228251 120.0
30.475152107 91.0
30.480075963 90.0
30.484999819 101.0
30.489923675 97.0
30.494847531 89.0
30.499771387 102.0
30.504695243 100.0
30.509619099 114.0
30.514542955 94.0
30.519466811 115.0
30.524390667 91.0
30.529314523 116.0
30.534238379 109.0
30.539162235 119.0
30.544086091 99.0
30.549009947 114.0
30.553933803 106.0
30.558857659 104.0
30.563781515 107.0
30.568705371 115.0
30.573629227 105.0
30.578553083 122.0
30.583476939 104.0
30.588400795 98.0
30.593324651 107.0
30.598248507 114.0
30.603172363 107.0
30.608096219 106.0
30.613020075 113.0
30.617943931 96.0
30.622867787 97.0
30.627791643 110.0
30.632715499 90.0
30.637639355 97.0
30.642563211 110.0
30.647487067 95.0
30.652410923 122.0
30.657334779 102.0
30.662258635 106.0
30.667182491 108.0
30.672106347 118.0
30.677030203 95.0
30.681954059 114.0
30.686877915 114.0
30.691801771 105.0
30.696725627 113.0
30.701649483 102.0
30.706573339 110.0
30.711497195 107.0
30.716421051 103.0
30.721344907 130.0
30.726268763 109.0
30.731192619 122.0
30.736116475 111.0
30.741040331 92.0
30.745964187 102.0
30.750888043 106.0
30.755811900 112.0
30.760735756 109.0
30.765659612 107.0
30.770583468 89.0
30.775507324 114.0
30.780431180 107.0
30.785355036 108.0
30.790278892 91.0
30.795202748 108.0
30.800126604 118.0
30.805050460 111.0
30.809974316 96.0
30.814898172 105.0
30.819822028 110.0
30.824745884 95.0
30.829669740 107.0
30.834593596 117.0
30.839517452 110.0
30.844441308 92.0
30.849365164 123.0
30.854289020 96.0
30.859212876 99.0
30.864136732 124.0
30.869060588 116.0
30.873984444 92.0
30.878908300 101.0
30.883832156 92.0
30.888756012 101.0
30.893679868 96.0
30.898603724 112.0
30.903527580 112.0
30.908451436 117.0
30.913375292 101.0
30.918299148 123.0
30.923223004 93.0
30.928146860 88.0
30.933070716 127.0
30.937994572 101.0
30.942918428 116.0
30.947842284 108.0
30.952766140 95.0
30.957689996 87.0
30.962613852 92.0
30.967537708 102.0
30.972461564 97.0
30.977385420 98.0
30.982309276 108.0
30.987233132 104.0
30.992156988 108.0
30.997080844 108.0
31.002004700 107.0
31.006928556 119.0
31.011852412 114.0
31.016776268 112.0
31.021700124 97.0
31.026623980 117.0
31.031547836 95.0
31.036471692 110.0
31.041395548 89.0
31.046319404 96.0
31.051243260 104.0
31.056167116 108.0
31.061090972 103.0
31.066014828 107.0
31.070938684 104.0
31.075862540 112.0
31.080786396 111.0
31.085710252 118.0
31.090634108 91.0
31.095557964 97.0
31.100481820 103.0
31.105405676 119.0
31.110329532 116.0
31.115253388 129.0
31.120177244 99.0
31.125101100 93.0
31.130024956 108.0
31.134948812 99.0
31.139872668 107.0
31.144796524 112.0
31.149720380 103.0
31.154644236 89.0
31.159568092 113.0
31.164491948 108.0
31.169415804 99.0
31.174339660 104.0
31.179263516 96.0
31.184187372 112.0
31.189111228 119.0
31.194035084 104.0
31.198958940 94.0
31.203882796 103.0
31.208806652 101.0
31.213730508 112.0
31.218654364 126.0
31.223578220 83.0
31.228502076 106.0
31.233425932 106.0
31.238349788 96.0
31.243273644 95.0
31.248197500 108.0
31.253121357 110.0
31.258045213 117.0
31.262969069 102.0
31.267892925 103.0
31.272816781 97.0
31.277740637 109.0
31.282664493 87.0
31.287588349 130.0
31.292512205 100.0
31.297436061 115.0
31.302359917 95.0
31.307283773 97.0
31.312207629 100.0
31.317131485 106.0
31.322055341 104.0
31.326979197 108.0
31.331903053 127.0
31.336826909 136.0
31.341750765 89.0
31.346674621 104.0
31.351598477 118.0
31.356522333 103.0
31.361446189 112.0
31.366370045 110.0
31.371293901 105.0
31.376217757 110.0
31.381141613 107.0
31.386065469 114.0
31.390989325 111.0
31.395913181 110.0
31.400837037 107.0
31.405760893 128.0
31.410684749 86.0
31.415608605 106.0
31.420532461 111.0
31.425456317 121.0
31.430380173 102.0
31.435304029 109.0
31.440227885 95.0
31.445151741 102.0
31.450075597 116.0
31.454999453 108.0
31.459923309 107.0
31.464847165 96.0
31.469771021 93.0
31.474694877 121.0
31.479618733 100.0
31.484542589 111.0
31.489466445 89.0
31.494390301 111.0
31.499314157 98.0
31.504238013 101.0
31.509161869 119.0
31.514085725 94.0
31.519009581 98.0
31.523933437 92.0
31.528857293 102.0
31.533781149 108.0
31.538705005 99.0
31.543628861 100.0
31.548552717 98.0
31.553476573 111.0
31.558400429 100.0
31.563324285 129.0
31.568248141 118.0
31.573171997 107.0
31.578095853 99.0
31.583019709 85.0
31.587943565 120.0
31.592867421 114.0
31.597791277 99.0
31.602715133 103.0
31.607638989 124.0
31.612562845 106.0
31.617486701 101.0
31.622410557 93.0
31.627334413 111.0
31.632258269 117.0
31.637182125 81.0
31.642105981 106.0
31.647029837 125.0
31.651953693 98.0
31.656877549 111.0
31.661801405 110.0
31.666725261 100.0
31.671649117 95.0
31.676572973 107.0
31.681496829 116.0
31.686420685 119.0
31.691344541 106.0
31.696268397 100.0
31.701192253 130.0
31.706116109 99.0
31.711039965 97.0
31.715963821 112.0
31.720887677 104.0
31.725811533 117.0
31.730735389 85.0
31.735659245 97.0
31.740583101 88.0
31.745506957 114.0
31.750430813 93.0
31.755354670 104.0
31.760278526 114.0
31.765202382 109.0
31.770126238 113.0
31.775050094 106.0
31.779973950 109.0
31.784897806 98.0
31.789821662 112.0
31.794745518 85.0
31.799669374 109.0
31.804593230 111.0
31.809517086 115.0
31.814440942 130.0
31.819364798 103.0
31.824288654 98.0
31.829212510 88.0
31.834136366 110.0
31.839060222 119.0
31.843984078 119.0
31.848907934 96.0
31.853831790 117.0
31.858755646 119.0
31.863679502 123.0
31.868603358 96.0
31.873527214 111.0
31.878451070 122.0
31.883374926 118.0
31.888298782 108.0
31.893222638 113.0
31.898146494 95.0
31.903070350 112.0
31.907994206 117.0
31.912918062 123.0
31.917841918 91.0
31.922765774 119.0
31.927689630 124.0
31.932613486 111.0
31.937537342 127.0
31.942461198 93.0
31.947385054 114.0
31.952308910 117.0
31.957232766 101.0
31.962156622 124.0
31.967080478 122.0
31.972004334 109.0
31.976928190 117.0
31.981852046 132.0
31.986775902 135.0
31.991699758 109.0
31.996623614 110.0
32.001547470 116.0
32.006471326 102.0
32.011395182 115.0
32.016319038 119.0
32.021242894 122.0
32.026166750 137.0
32.031090606 117.0
32.036014462 125.0
32.040938318 101.0
32.045862174 102.0
32.050786030 104.0
32.055709886 96.0
32.060633742 126.0
32.065557598 122.0
32.070481454 124.0
32.075405310 114.0
32.080329166 101.0
32.085253022 105.0
32.090176878 116.0
32.095100734 120.0
32.100024590 126.0
32.104948446 113.0
32.109872302 119.0
32.114796158 84.0
32.119720014 119.0
32.124643870 104.0
32.129567726 117.0
32.134491582 135.0
32.139415438 121.0
32.144339294 123.0
32.149263150 106.0
32.154187006 89.0
32.159110862 114.0
32.164034718 128.0
32.168958574 117.0
32.173882430 116.0
32.178806286 114.0
32.183730142 127.0
32.188653998 113.0
32.193577854 111.0
32.198501710 129.0
32.203425566 98.0
32.208349422 107.0
32.213273278 115.0
32.218197134 99.0
32.223120990 101.0
32.228044846 108.0
32.232968702 125.0
32.237892558 117.0
32.242816414 126.0
32.247740270 90.0
32.252664127 108.0
32.257587983 94.0
32.262511839 98.0
32.267435695 106.0
32.272359551 120.0
32.277283407 104.0
32.282207263 90.0
32.287131119 102.0
32.292054975 114.0
32.296978831 105.0
32.301902687 126.0
32.306826543 105.0
32.311750399 104.0
32.316674255 120.0
32.321598111 117.0
32.326521967 100.0
32.331445823 112.0
32.336369679 108.0
32.341293535 116.0
32.346217391 125.0
32.351141247 107.0
32.356065103 95.0
32.360988959 106.0
32.365912815 109.0
32.370836671 115.0
32.375760527 116.0
32.380684383 99.0
32.385608239 92.0
32.390532095 102.0
32.395455951 97.0
32.400379807 126.0
32.405303663 129.0
32.410227519 105.0
32.415151375 109.0
32.420075231 114.0
32.424999087 101.0
32.429922943 94.0
32.434846799 96.0
32.439770655 106.0
32.444694511 96.0
32.449618367 108.0
32.454542223 112.0
32.459466079 121.0
32.464389935 119.0
32.469313791 109.0
32.474237647 99.0
32.479161503 118.0
32.484085359 107.0
32.489009215 106.0
32.493933071 102.0
32.498856927 92.0
32.503780783 113.0
32.508704639 109.0
32.513628495 101.0
32.518552351 110.0
32.523476207 100.0
32.528400063 117.0
32.533323919 108.0
32.538247775 122.0
32.543171631 113.0
32.548095487 110.0
32.553019343 102.0
32.557943199 115.0
32.562867055 106.0
32.567790911 115.0
32.572714767 130.0
32.577638623 94.0
32.582562479 94.0
32.587486335 94.0
32.592410191 101.0
32.597334047 109.0
32.602257903 105.0
32.607181759 124.0
32.612105615 102.0
32.617029471 113.0
32.621953327 105.0
32.626877183 116.0
32.631801039 87.0
32.636724895 119.0
32.641648751 93.0
32.646572607 112.0
32.651496463 96.0
32.656420319 111.0
32.661344175 97.0
32.666268031 95.0
32.671191887 119.0
32.676115743 115.0
32.681039599 101.0
32.685963455 124.0
32.690887311 108.0
32.695811167 105.0
32.700735023 108.0
32.705658879 122.0
32.710582735 117.0
32.715506591 112.0
32.720430447 103.0
32.725354303 102.0
32.730278159 113.0
32.735202015 97.0
32.740125871 115.0
32.745049727 107.0
32.749973583 114.0
32.754897440 111.0
32.759821296 113.0
32.764745152 106.0
32.769669008 111.0
32.774592864 102.0
32.779516720 109.0
32.784440576 98.0
32.789364432 118.0
32.794288288 107.0
32.799212144 122.0
32.804136000 98.0
32.809059856 116.0
32.813983712 101.0
32.818907568 111.0
32.823831424 110.0
32.828755280 113.0
32.833679136 103.0
32.838602992 102.0
32.843526848 94.0
32.848450704 103.0
32.853374560 116.0
32.858298416 100.0
32.863222272 118.0
32.868146128 104.0
32.873069984 89.0
32.877993840 105.0
32.882917696 114.0
32.887841552 110.0
32.892765408 120.0
32.897689264 106.0
32.902613120 95.0
32.907536976 112.0
32.912460832 99.0
32.917384688 116.0
32.922308544 109.0
32.927232400 113.0
32.932156256 109.0
32.937080112 108.0
32.942003968 128.0
32.946927824 114.0
32.951851680 101.0
32.956775536 96.0
32.961699392 120.0
32.966623248 101.0
32.971547104 105.0
32.976470960 117.0
32.981394816 117.0
32.986318672 115.0
32.991242528 124.0
32.996166384 123.0
33.001090240 120.0
33.006014096 104.0
33.010937952 100.0
33.015861808 110.0
33.020785664 101.0
33.025709520 93.0
33.030633376 97.0
33.035557232 96.0
33.040481088 124.0
33.045404944 121.0
33.050328800 119.0
33.055252656 108.0
33.060176512 112.0
33.065100368 119.0
33.070024224 119.0
33.074948080 96.0
33.079871936 100.0
33.084795792 103.0
33.089719648 101.0
33.094643504 114.0
33.099567360 97.0
33.104491216 124.0
33.109415072 89.0
33.114338928 104.0
33.119262784 124.0
33.124186640 119.0
33.129110496 96.0
33.134034352 128.0
33.138958208 100.0
33.143882064 125.0
33.148805920 138.0
33.153729776 83.0
33.158653632 119.0
33.163577488 107.0
33.168501344 102.0
33.173425200 114.0
33.178349056 111.0
33.183272912 99.0
33.188196768 96.0
33.193120624 110.0
33.198044480 107.0
33.202968336 134.0
33.207892192 132.0
33.212816048 125.0
33.217739904 104.0
33.222663760 118.0
33.227587616 101.0
33.232511472 111.0
33.237435328 83.0
33.242359184 118.0
33.247283040 112.0
33.252206897 100.0
33.257130753 112.0
33.262054609 98.0
33.266978465 111.0
33.271902321 120.0
33.276826177 102.0
33.281750033 94.0
33.286673889 119.0
33.291597745 106.0
33.296521601 114.0
33.301445457 108.0
33.306369313 101.0
33.311293169 118.0
33.316217025 110.0
33.321140881 124.0
33.326064737 122.0
33.330988593 96.0
33.335912449 120.0
33.340836305 115.0
33.345760161 94.0
33.350684017 109.0
33.355607873 119.0
33.360531729 111.0
33.365455585 117.0
33.370379441 99.0
33.375303297 114.0
33.380227153 104.0
33.385151009 88.0
33.390074865 133.0
33.394998721 106.0
33.399922577 93.0
33.404846433 113.0
33.409770289 112.0
33.414694145 124.0
33.419618001 109.0
33.424541857 125.0
33.429465713 104.0
33.434389569 113.0
33.439313425 98.0
33.444237281 125.0
33.449161137 128.0
33.454084993 112.0
33.459008849 133.0
33.463932705 127.0
33.468856561 121.0
33.473780417 118.0
33.478704273 111.0
33.483628129 114.0
33.488551985 103.0
33.493475841 118.0
33.498399697 117.0
33.503323553 138.0
33.508247409 111.0
33.513171265 118.0
33.518095121 97.0
33.523018977 142.0
33.527942833 121.0
33.532866689 128.0
33.537790545 104.0
33.542714401 111.0
33.547638257 122.0
33.552562113 111.0
33.557485969 118.0
33.562409825 108.0
33.567333681 102.0
33.572257537 142.0
33.577181393 112.0
33.582105249 111.0
33.587029105 122.0
33.591952961 120.0
33.596876817 122.0
33.601800673 124.0
33.606724529 129.0
33.611648385 130.0
33.616572241 115.0
33.621496097 131.0
33.626419953 149.0
33.631343809 124.0
33.636267665 129.0
33.641191521 130.0
33.646115377 133.0
33.651039233 126.0
33.655963089 139.0
33.660886945 106.0
33.665810801 130.0
33.670734657 118.0
33.675658513 126.0
33.680582369 129.0
33.685506225 151.0
33.690430081 108.0
33.695353937 118.0
33.700277793 135.0
33.705201649 113.0
33.710125505 119.0
33.715049361 121.0
33.719973217 130.0
33.724897073 130.0
33.729820929 115.0
33.734744785 136.0
33.739668641 117.0
33.744592497 133.0
33.749516353 147.0
33.754440210 130.0
33.759364066 126.0
33.764287922 146.0
33.769211778 143.0
33.774135634 138.0
33.779059490 135.0
33.783983346 141.0
33.788907202 130.0
33.793831058 146.0
33.798754914 141.0
33.803678770 120.0
33.808602626 126.0
33.813526482 147.0
33.818450338 137.0
33.823374194 134.0
33.828298050 155.0
33.833221906 147.0
33.838145762 161.0
33.843069618 177.0
33.847993474 177.0
33.852917330 185.0
33.857841186 259.0
33.862765042 273.0
33.867688898 332.0
33.872612754 425.0
33.877536610 535.0
33.882460466 741.0
33.887384322 786.0
33.892308178 993.0
33.897232034 1046.0
33.902155890 1178.0
33.907079746 1157.0
33.912003602 1245.0
33.916927458 1161.0
33.921851314 1132.0
33.926775170 975.0
33.931699026 895.0
33.936622882 709.0
33.941546738 641.0
33.946470594 518.0
33.951394450 408.0
33.956318306 375.0
33.961242162 324.0
33.966166018 315.0
33.971089874 209.0
33.976013730 230.0
33.980937586 230.0
33.985861442 202.0
33.990785298 189.0
33.995709154 174.0
34.000633010 157.0
34.005556866 175.0
34.010480722 180.0
34.015404578 173.0
34.020328434 155.0
34.025252290 152.0
34.030176146 146.0
34.035100002 155.0
34.040023858 146.0
34.044947714 137.0
34.049871570 177.0
34.054795426 158.0
34.059719282 170.0
34.064643138 149.0
34.069566994 152.0
34.074490850 160.0
34.079414706 136.0
34.084338562 154.0
34.089262418 160.0
34.094186274 124.0
34.099110130 132.0
34.104033986 139.0
34.108957842 134.0
34.113881698 133.0
34.118805554 168.0
34.123729410 147.0
34.128653266 155.0
34.133577122 153.0
34.138500978 145.0
34.143424834 132.0
34.148348690 138.0
34.153272546 151.0
34.158196402 143.0
34.163120258 133.0
34.168044114 121.0
34.172967970 125.0
34.177891826 134.0
34.182815682 134.0
34.187739538 141.0
34.192663394 165.0
34.197587250 128.0
34.202511106 126.0
34.207434962 128.0
34.212358818 148.0
34.217282674 126.0
34.222206530 150.0
34.227130386 145.0
34.232054242 155.0
34.236978098 159.0
34.241901954 135.0
34.246825810 159.0
34.251749667 157.0
34.256673523 127.0
34.261597379 140.0
34.266521235 157.0
34.271445091 149.0
34.276368947 140.0
34.281292803 144.0
34.286216659 117.0
34.291140515 146.0
34.296064371 133.0
34.300988227 141.0
34.305912083 137.0
34.310835939 179.0
34.315759795 153.0
34.320683651 148.0
34.325607507 148.0
34.330531363 148.0
34.335455219 136.0
34.340379075 143.0
34.345302931 154.0
34.350226787 136.0
34.355150643 174.0
34.360074499 167.0
34.364998355 148.0
34.369922211 150.0
34.374846067 124.0
34.379769923 171.0
34.384693779 151.0
34.389617635 138.0
34.394541491 162.0
34.399465347 133.0
34.404389203 135.0
34.409313059 166.0
34.414236915 164.0
34.419160771 152.0
34.424084627 158.0
34.429008483 159.0
34.433932339 153.0
34.438856195 156.0
34.443780051 171.0
34.448703907 158.0
34.453627763 160.0
34.458551619 166.0
34.463475475 142.0
34.468399331 156.0
34.473323187 166.0
34.478247043 154.0
34.483170899 159.0
34.488094755 165.0
34.493018611 151.0
34.497942467 153.0
34.502866323 143.0
34.507790179 165.0
34.512714035 170.0
34.517637891 135.0
34.522561747 159.0
34.527485603 173.0
34.532409459 140.0
34.537333315 149.0
34.542257171 142.0
34.547181027 176.0
34.552104883 145.0
34.557028739 150.0
34.561952595 188.0
34.566876451 164.0
34.571800307 152.0
34.576724163 160.0
34.581648019 150.0
34.586571875 151.0
34.591495731 148.0
34.596419587 146.0
34.601343443 146.0
34.606267299 175.0
34.611191155 150.0
34.616115011 177.0
34.621038867 162.0
34.625962723 183.0
34.630886579 160.0
34.635810435 177.0
34.640734291 177.0
34.645658147 156.0
34.650582003 174.0
34.655505859 175.0
34.660429715 177.0
34.665353571 170.0
34.670277427 152.0
34.675201283 193.0
34.680125139 154.0
34.685048995 188.0
34.689972851 179.0
34.694896707 175.0
34.699820563 171.0
34.704744419 199.0
34.709668275 167.0
34.714592131 181.0
34.719515987 190.0
34.724439843 194.0
34.729363699 188.0
34.734287555 178.0
34.739211411 183.0
34.744135267 166.0
34.749059123 184.0
34.753982980 183.0
34.758906836 179.0
34.763830692 185.0
34.768754548 175.0
34.773678404 183.0
34.778602260 178.0
34.783526116 181.0
34.788449972 163.0
34.793373828 188.0
34.798297684 176.0
34.803221540 211.0
34.808145396 184.0
34.813069252 227.0
34.817993108 195.0
34.822916964 181.0
34.827840820 174.0
34.832764676 188.0
34.837688532 180.0
34.842612388 212.0
34.847536244 203.0
34.852460100 208.0
34.857383956 196.0
34.862307812 191.0
34.867231668 198.0
34.872155524 186.0
34.877079380 194.0
34.882003236 224.0
34.886927092 224.0
34.891850948 197.0
34.896774804 200.0
34.901698660 207.0
34.906622516 196.0
34.911546372 199.0
34.916470228 226.0
34.921394084 240.0
34.926317940 229.0
34.931241796 223.0
34.936165652 217.0
34.941089508 220.0
34.946013364 256.0
34.950937220 231.0
34.955861076 217.0
34.960784932 257.0
34.965708788 234.0
34.970632644 229.0
34.975556500 230.0
34.980480356 269.0
34.985404212 239.0
34.990328068 256.0
34.995251924 239.0
35.000175780 258.0
35.005099636 227.0
35.010023492 260.0
35.014947348 275.0
35.019871204 234.0
35.024795060 227.0
35.029718916 258.0
35.034642772 263.0
35.039566628 276.0
35.044490484 289.0
35.049414340 265.0
35.054338196 272.0
35.059262052 278.0
35.064185908 261.0
35.069109764 286.0
35.074033620 315.0
35.078957476 293.0
35.083881332 296.0
35.088805188 305.0
35.093729044 280.0
35.098652900 277.0
35.103576756 288.0
35.108500612 307.0
35.113424468 306.0
35.118348324 299.0
35.123272180 330.0
35.128196036 337.0
35.133119892 313.0
35.138043748 349.0
35.142967604 313.0
35.147891460 324.0
35.152815316 395.0
35.157739172 378.0
35.162663028 386.0
35.167586884 389.0
35.172510740 415.0
35.177434596 368.0
35.182358452 402.0
35.187282308 370.0
35.192206164 436.0
35.197130020 430.0
35.202053876 413.0
35.206977732 462.0
35.211901588 476.0
35.216825444 456.0
35.221749300 461.0
35.226673156 505.0
35.231597012 494.0
35.236520868 499.0
35.241444724 535.0
35.246368580 520.0
35.251292437 535.0
35.256216293 592.0
35.261140149 582.0
35.266064005 612.0
35.270987861 593.0
35.275911717 606.0
35.280835573 632.0
35.285759429 639.0
35.290683285 702.0
35.295607141 717.0
35.300530997 741.0
35.305454853 743.0
35.310378709 823.0
35.315302565 860.0
35.320226421 887.0
35.325150277 959.0
35.330074133 931.0
35.334997989 1024.0
35.339921845 1048.0
35.344845701 1080.0
35.349769557 1104.0
35.354693413 1274.0
35.359617269 1184.0
35.364541125 1269.0
35.369464981 1341.0
35.374388837 1427.0
35.379312693 1437.0
35.384236549 1495.0
35.389160405 1523.0
35.394084261 1627.0
35.399008117 1737.0
35.403931973 1687.0
35.408855829 1819.0
35.413779685 1853.0
35.418703541 1930.0
35.423627397 2007.0
35.428551253 2132.0
35.433475109 2190.0
35.438398965 2261.0
35.443322821 2339.0
35.448246677 2370.0
35.453170533 2388.0
35.458094389 2523.0
35.463018245 2626.0
35.467942101 2663.0
35.472865957 2581.0
35.477789813 2719.0
35.482713669 2720.0
35.487637525 2897.0
35.492561381 2849.0
35.497485237 2773.0
35.502409093 2951.0
35.507332949 2904.0
35.512256805 3032.0
35.517180661 3025.0
35.522104517 3014.0
35.527028373 2920.0
35.531952229 3096.0
35.536876085 3037.0
35.541799941 3067.0
35.546723797 2969.0
35.551647653 3000.0
35.556571509 2864.0
35.561495365 2937.0
35.566419221 2867.0
35.571343077 2941.0
35.576266933 2807.0
35.581190789 2809.0
35.586114645 2705.0
35.591038501 2623.0
35.595962357 2664.0
35.600886213 2620.0
35.605810069 2584.0
35.610733925 2533.0
35.615657781 2506.0
35.620581637 2502.0
35.625505493 2383.0
35.630429349 2358.0
35.635353205 2273.0
35.640277061 2250.0
35.645200917 2057.0
35.650124773 2014.0
35.655048629 1949.0
35.659972485 1943.0
35.664896341 1826.0
35.669820197 1849.0
35.674744053 1767.0
35.679667909 1708.0
35.684591765 1522.0
35.689515621 1578.0
35.694439477 1465.0
35.699363333 1452.0
35.704287189 1431.0
35.709211045 1410.0
35.714134901 1385.0
35.719058757 1341.0
35.723982613 1277.0
35.728906469 1224.0
35.733830325 1108.0
35.738754181 1082.0
35.743678037 1117.0
35.748601893 1027.0
35.753525750 998.0
35.758449606 943.0
35.763373462 956.0
35.768297318 933.0
35.773221174 899.0
35.778145030 854.0
35.783068886 799.0
35.787992742 807.0
35.792916598 753.0
35.797840454 718.0
35.802764310 777.0
35.807688166 706.0
35.812612022 727.0
35.817535878 666.0
35.822459734 664.0
35.827383590 687.0
35.832307446 649.0
35.837231302 688.0
35.842155158 622.0
35.847079014 612.0
35.852002870 617.0
35.856926726 612.0
35.861850582 565.0
35.866774438 555.0
35.871698294 557.0
35.876622150 539.0
35.881546006 524.0
35.886469862 577.0
35.891393718 517.0
35.896317574 521.0
35.901241430 505.0
35.906165286 522.0
35.911089142 495.0
35.916012998 446.0
35.920936854 472.0
35.925860710 463.0
35.930784566 438.0
35.935708422 448.0
35.940632278 455.0
35.945556134 461.0
35.950479990 474.0
35.955403846 413.0
35.960327702 452.0
35.965251558 438.0
35.970175414 431.0
35.975099270 433.0
35.980023126 390.0
35.984946982 381.0
35.989870838 390.0
35.994794694 396.0
35.999718550 359.0
36.004642406 395.0
36.009566262 391.0
36.014490118 388.0
36.019413974 346.0
36.024337830 366.0
36.029261686 353.0
36.034185542 379.0
36.039109398 415.0
36.044033254 334.0
36.048957110 327.0
36.053880966 369.0
36.058804822 330.0
36.063728678 384.0
36.068652534 325.0
36.073576390 340.0
36.078500246 304.0
36.083424102 337.0
36.088347958 321.0
36.093271814 345.0
36.098195670 312.0
36.103119526 309.0
36.108043382 306.0
36.112967238 316.0
36.117891094 303.0
36.122814950 300.0
36.127738806 310.0
36.132662662 330.0
36.137586518 328.0
36.142510374 279.0
36.147434230 290.0
36.152358086 281.0
36.157281942 285.0
36.162205798 281.0
36.167129654 274.0
36.172053510 280.0
36.176977366 280.0
36.181901222 280.0
36.186825078 276.0
36.191748934 277.0
36.196672790 278.0
36.201596646 300.0
36.206520502 235.0
36.211444358 271.0
36.216368214 260.0
36.221292070 275.0
36.226215926 262.0
36.231139782 268.0
36.236063638 286.0
36.240987494 216.0
36.245911350 241.0
36.250835207 258.0
36.255759063 291.0
36.260682919 241.0
36.265606775 298.0
36.270530631 289.0
36.275454487 227.0
36.280378343 279.0
36.285302199 219.0
36.290226055 258.0
36.295149911 274.0
36.300073767 235.0
36.304997623 218.0
36.309921479 228.0
36.314845335 223.0
36.319769191 263.0
36.324693047 260.0
36.329616903 236.0
36.334540759 219.0
36.339464615 213.0
36.344388471 227.0
36.349312327 265.0
36.354236183 236.0
36.359160039 266.0
36.364083895 222.0
36.369007751 217.0
36.373931607 216.0
36.378855463 240.0
36.383779319 209.0
36.388703175 219.0
36.393627031 275.0
36.398550887 216.0
36.403474743 276.0
36.408398599 206.0
36.413322455 229.0
36.418246311 230.0
36.423170167 232.0
36.428094023 214.0
36.433017879 240.0
36.437941735 237.0
36.442865591 224.0
36.447789447 240.0
36.452713303 234.0
36.457637159 225.0
36.462561015 223.0
36.467484871 232.0
36.472408727 208.0
36.477332583 263.0
36.482256439 215.0
36.487180295 212.0
36.492104151 227.0
36.497028007 224.0
36.501951863 194.0
36.506875719 229.0
36.511799575 231.0
36.516723431 202.0
36.521647287 209.0
36.526571143 206.0
36.531494999 202.0
36.536418855 219.0
36.541342711 211.0
36.546266567 196.0
36.551190423 233.0
36.556114279 210.0
36.561038135 219.0
36.565961991 215.0
36.570885847 266.0
36.575809703 236.0
36.580733559 213.0
36.585657415 259.0
36.590581271 256.0
36.595505127 223.0
36.600428983 212.0
36.605352839 201.0
36.610276695 262.0
36.615200551 223.0
36.620124407 226.0
36.625048263 215.0
36.629972119 255.0
36.634895975 267.0
36.639819831 221.0
36.644743687 282.0
36.649667543 219.0
36.654591399 216.0
36.659515255 227.0
36.664439111 230.0
36.669362967 228.0
36.674286823 257.0
36.679210679 283.0
36.684134535 215.0
36.689058391 227.0
36.693982247 263.0
36.698906103 231.0
36.703829959 301.0
36.708753815 256.0
36.713677671 259.0
36.718601527 228.0
36.723525383 286.0
36.728449239 277.0
36.733373095 295.0
36.738296951 286.0
36.743220807 285.0
36.748144663 273.0
36.753068520 276.0
36.757992376 299.0
36.762916232 305.0
36.767840088 279.0
36.772763944 303.0
36.777687800 281.0
36.782611656 270.0
36.787535512 257.0
36.792459368 310.0
36.797383224 315.0
36.802307080 340.0
36.807230936 332.0
36.812154792 266.0
36.817078648 275.0
36.822002504 330.0
36.826926360 286.0
36.831850216 320.0
36.836774072 318.0
36.841697928 324.0
36.846621784 297.0
36.851545640 314.0
36.856469496 319.0
36.861393352 296.0
36.866317208 323.0
36.871241064 318.0
36.876164920 331.0
36.881088776 323.0
36.886012632 299.0
36.890936488 321.0
36.895860344 327.0
36.900784200 340.0
36.905708056 325.0
36.910631912 347.0
36.915555768 336.0
36.920479624 309.0
36.925403480 339.0
36.930327336 313.0
36.935251192 355.0
36.940175048 368.0
36.945098904 359.0
36.950022760 351.0
36.954946616 350.0
36.959870472 398.0
36.964794328 334.0
36.969718184 319.0
36.974642040 352.0
36.979565896 377.0
36.984489752 389.0
36.989413608 353.0
36.994337464 363.0
36.999261320 350.0
37.004185176 347.0
37.009109032 386.0
37.014032888 396.0
37.018956744 385.0
37.023880600 399.0
37.028804456 347.0
37.033728312 382.0
37.038652168 426.0
37.043576024 393.0
37.048499880 401.0
37.053423736 363.0
37.058347592 393.0
37.063271448 405.0
37.068195304 417.0
37.073119160 406.0
37.078043016 404.0
37.082966872 421.0
37.087890728 406.0
37.092814584 415.0
37.097738440 425.0
37.102662296 447.0
37.107586152 416.0
37.112510008 418.0
37.117433864 465.0
37.122357720 446.0
37.127281576 476.0
37.132205432 454.0
37.137129288 432.0
37.142053144 495.0
37.146977000 454.0
37.151900856 449.0
37.156824712 459.0
37.161748568 477.0
37.166672424 429.0
37.171596280 496.0
37.176520136 482.0
37.181443992 512.0
37.186367848 423.0
37.191291704 493.0
37.196215560 442.0
37.201139416 495.0
37.206063272 493.0
37.210987128 502.0
37.215910984 516.0
37.220834840 530.0
37.225758696 509.0
37.230682552 526.0
37.235606408 571.0
37.240530264 563.0
37.245454120 533.0
37.250377977 551.0
37.255301833 527.0
37.260225689 607.0
37.265149545 653.0
37.270073401 609.0
37.274997257 621.0
37.279921113 587.0
37.284844969 638.0
37.289768825 669.0
37.294692681 707.0
37.299616537 689.0
37.304540393 705.0
37.309464249 720.0
37.314388105 725.0
37.319311961 691.0
37.324235817 699.0
37.329159673 761.0
37.334083529 814.0
37.339007385 728.0
37.343931241 837.0
37.348855097 814.0
37.353778953 813.0
37.358702809 862.0
37.363626665 835.0
37.368550521 940.0
37.373474377 901.0
37.378398233 896.0
37.383322089 875.0
37.388245945 969.0
37.393169801 1021.0
37.398093657 960.0
37.403017513 1109.0
37.407941369 1080.0
37.412865225 1163.0
37.417789081 1205.0
37.422712937 1301.0
37.427636793 1288.0
37.432560649 1294.0
37.437484505 1497.0
37.442408361 1550.0
37.447332217 1784.0
37.452256073 1895.0
37.457179929 2094.0
37.462103785 2354.0
37.467027641 2695.0
37.471951497 3024.0
37.476875353 3209.0
37.481799209 3470.0
37.486723065 3437.0
37.491646921 3905.0
37.496570777 3631.0
37.501494633 4055.0
37.506418489 3775.0
37.511342345 3828.0
37.516266201 3783.0
37.521190057 3699.0
37.526113913 3754.0
37.531037769 3643.0
37.535961625 3811.0
37.540885481 3519.0
37.545809337 3775.0
37.550733193 3741.0
37.555657049 4105.0
37.560580905 4318.0
37.565504761 4457.0
37.570428617 5016.0
37.575352473 5305.0
37.580276329 6057.0
37.585200185 6586.0
37.590124041 7476.0
37.595047897 8571.0
37.599971753 9639.0
37.604895609 12533.0
37.609819465 13614.0
37.614743321 19498.0
37.619667177 22527.0
37.624591033 36940.0
37.629514889 49238.0
37.634438745 90992.0
37.639362601 136757.0
37.644286457 178611.0
37.649210313 221660.0
37.654134169 233184.0
37.659058025 251134.0
37.663981881 248618.0
37.668905737 254919.0
37.673829593 243923.0
37.678753449 241311.0
37.683677305 202535.0
37.688601161 162688.0
37.693525017 116364.0
37.698448873 68455.0
37.703372729 53485.0
37.708296585 35277.0
37.713220441 31901.0
37.718144297 29351.0
37.723068153 31108.0
37.727992009 43723.0
37.732915865 53696.0
37.737839721 83861.0
37.742763577 98902.0
37.747687433 117647.0
37.752611290 125848.0
37.757535146 129933.0
37.762459002 132773.0
37.767382858 129060.0
37.772306714 128835.0
37.777230570 115167.0
37.782154426 107370.0
37.787078282 73718.0
37.792002138 59217.0
37.796925994 35265.0
37.801849850 25745.0
37.806773706 17112.0
37.811697562 13151.0
37.816621418 10224.0
37.821545274 8373.0
37.826469130 7255.0
37.831392986 6161.0
37.836316842 5627.0
37.841240698 4859.0
37.846164554 4767.0
37.851088410 3963.0
37.856012266 3912.0
37.860936122 3478.0
37.865859978 3400.0
37.870783834 3082.0
37.875707690 2989.0
37.880631546 2767.0
37.885555402 2630.0
37.890479258 2622.0
37.895403114 2354.0
37.900326970 2416.0
37.905250826 2166.0
37.910174682 2062.0
37.915098538 2007.0
37.920022394 1888.0
37.924946250 1868.0
37.929870106 1744.0
37.934793962 1782.0
37.939717818 1618.0
37.944641674 1668.0
37.949565530 1611.0
37.954489386 1511.0
37.959413242 1504.0
37.964337098 1412.0
37.969260954 1422.0
37.974184810 1386.0
37.979108666 1369.0
37.984032522 1264.0
37.988956378 1278.0
37.993880234 1220.0
37.998804090 1212.0
38.003727946 1237.0
38.008651802 1147.0
38.013575658 1079.0
38.018499514 1075.0
38.023423370 1200.0
38.028347226 1086.0
38.033271082 1081.0
38.038194938 960.0
38.043118794 1050.0
38.048042650 951.0
38.052966506 1030.0
38.057890362 922.0
38.062814218 894.0
38.067738074 951.0
38.072661930 930.0
38.077585786 944.0
38.082509642 856.0
38.087433498 916.0
38.092357354 805.0
38.097281210 826.0
38.102205066 804.0
38.107128922 858.0
38.112052778 793.0
38.116976634 808.0
38.121900490 782.0
38.126824346 761.0
38.131748202 720.0
38.136672058 732.0
38.141595914 756.0
38.146519770 741.0
38.151443626 732.0
38.156367482 696.0
38.161291338 703.0
38.166215194 689.0
38.171139050 681.0
38.176062906 710.0
38.180986762 690.0
38.185910618 678.0
38.190834474 651.0
38.195758330 621.0
38.200682186 618.0
38.205606042 623.0
38.210529898 615.0
38.215453754 608.0
38.220377610 651.0
38.225301466 583.0
38.230225322 570.0
38.235149178 548.0
38.240073034 541.0
38.244996890 561.0
38.249920747 563.0
38.254844603 539.0
38.259768459 534.0
38.264692315 513.0
38.269616171 559.0
38.274540027 544.0
38.279463883 531.0
38.284387739 473.0
38.289311595 496.0
38.294235451 511.0
38.299159307 497.0
38.304083163 481.0
38.309007019 456.0
38.313930875 464.0
38.318854731 463.0
38.323778587 445.0
38.328702443 459.0
38.333626299 430.0
38.338550155 440.0
38.343474011 474.0
38.348397867 437.0
38.353321723 429.0
38.358245579 415.0
38.363169435 411.0
38.368093291 421.0
38.373017147 383.0
38.377941003 408.0
38.382864859 429.0
38.387788715 412.0
38.392712571 388.0
38.397636427 376.0
38.402560283 389.0
38.407484139 366.0
38.412407995 394.0
38.417331851 392.0
38.422255707 393.0
38.427179563 362.0
38.432103419 352.0
38.437027275 368.0
38.441951131 379.0
38.446874987 383.0
38.451798843 360.0
38.456722699 330.0
38.461646555 329.0
38.466570411 343.0
38.471494267 313.0
38.476418123 326.0
38.481341979 355.0
38.486265835 329.0
38.491189691 337.0
38.496113547 335.0
38.501037403 314.0
38.505961259 310.0
38.510885115 295.0
38.515808971 304.0
38.520732827 324.0
38.525656683 257.0
38.530580539 287.0
38.535504395 284.0
38.540428251 292.0
38.545352107 267.0
38.550275963 309.0
38.555199819 285.0
38.560123675 266.0
38.565047531 283.0
38.569971387 267.0
38.574895243 304.0
38.579819099 255.0
38.584742955 226.0
38.589666811 229.0
38.594590667 290.0
38.599514523 208.0
38.604438379 266.0
38.609362235 222.0
38.614286091 260.0
38.619209947 227.0
38.624133803 211.0
38.629057659 229.0
38.633981515 218.0
38.638905371 204.0
38.643829227 218.0
38.648753083 223.0
38.653676939 200.0
38.658600795 216.0
38.663524651 204.0
38.668448507 205.0
38.673372363 215.0
38.678296219 207.0
38.683220075 219.0
38.688143931 199.0
38.693067787 218.0
38.697991643 224.0
38.702915499 190.0
38.707839355 210.0
38.712763211 181.0
38.717687067 184.0
38.722610923 207.0
38.727534779 188.0
38.732458635 187.0
38.737382491 166.0
38.742306347 179.0
38.747230203 157.0
38.752154060 204.0
38.757077916 191.0
38.762001772 215.0
38.766925628 177.0
38.771849484 186.0
38.776773340 166.0
38.781697196 186.0
38.786621052 171.0
38.791544908 168.0
38.796468764 191.0
38.801392620 161.0
38.806316476 193.0
38.811240332 180.0
38.816164188 177.0
38.821088044 170.0
38.826011900 164.0
38.830935756 165.0
38.835859612 170.0
38.840783468 172.0
38.845707324 188.0
38.850631180 183.0
38.855555036 157.0
38.860478892 155.0
38.865402748 163.0
38.870326604 196.0
38.875250460 166.0
38.880174316 147.0
38.885098172 178.0
38.890022028 169.0
38.894945884 156.0
38.899869740 177.0
38.904793596 148.0
38.909717452 191.0
38.914641308 168.0
38.919565164 175.0
38.924489020 172.0
38.929412876 148.0
38.934336732 154.0
38.939260588 157.0
38.944184444 174.0
38.949108300 168.0
38.954032156 157.0
38.958956012 158.0
38.963879868 159.0
38.968803724 148.0
38.973727580 174.0
38.978651436 168.0
38.983575292 157.0
38.988499148 174.0
38.993423004 164.0
38.998346860 149.0
39.003270716 146.0
39.008194572 133.0
39.013118428 150.0
39.018042284 140.0
39.022966140 137.0
39.027889996 152.0
39.032813852 153.0
39.037737708 156.0
39.042661564 183.0
39.047585420 128.0
39.052509276 136.0
39.057433132 138.0
39.062356988 164.0
39.067280844 175.0
39.072204700 132.0
39.077128556 156.0
39.082052412 150.0
39.086976268 132.0
39.091900124 144.0
39.096823980 157.0
39.101747836 140.0
39.106671692 160.0
39.111595548 155.0
39.116519404 148.0
39.121443260 157.0
39.126367116 134.0
39.131290972 142.0
39.136214828 156.0
39.141138684 153.0
39.146062540 161.0
39.150986396 128.0
39.155910252 144.0
39.160834108 158.0
39.165757964 135.0
39.170681820 130.0
39.175605676 139.0
39.180529532 152.0
39.185453388 142.0
39.190377244 141.0
39.195301100 147.0
39.200224956 133.0
39.205148812 155.0
39.210072668 143.0
39.214996524 151.0
39.219920380 125.0
39.224844236 149.0
39.229768092 127.0
39.234691948 139.0
39.239615804 135.0
39.244539660 129.0
39.249463517 147.0
39.254387373 147.0
39.259311229 156.0
39.264235085 149.0
39.269158941 143.0
39.274082797 144.0
39.279006653 147.0
39.283930509 141.0
39.288854365 131.0
39.293778221 160.0
39.298702077 130.0
39.303625933 139.0
39.308549789 129.0
39.313473645 133.0
39.318397501 143.0
39.323321357 144.0
39.328245213 138.0
39.333169069 145.0
39.338092925 130.0
39.343016781 120.0
39.347940637 150.0
39.352864493 146.0
39.357788349 133.0
39.362712205 147.0
39.367636061 138.0
39.372559917 135.0
39.377483773 125.0
39.382407629 145.0
39.387331485 124.0
39.392255341 122.0
39.397179197 152.0
39.402103053 147.0
39.407026909 127.0
39.411950765 156.0
39.416874621 131.0
39.421798477 131.0
39.426722333 149.0
39.431646189 122.0
39.436570045 137.0
39.441493901 133.0
39.446417757 129.0
39.451341613 125.0
39.456265469 139.0
39.461189325 134.0
39.466113181 147.0
39.471037037 147.0
39.475960893 143.0
39.480884749 143.0
39.485808605 134.0
39.490732461 116.0
39.495656317 131.0
39.500580173 146.0
39.505504029 139.0
39.510427885 157.0
39.515351741 141.0
39.520275597 138.0
39.525199453 142.0
39.530123309 127.0
39.535047165 117.0
39.539971021 117.0
39.544894877 113.0
39.549818733 125.0
39.554742589 136.0
39.559666445 128.0
39.564590301 129.0
39.569514157 114.0
39.574438013 136.0
39.579361869 124.0
39.584285725 128.0
39.589209581 135.0
39.594133437 130.0
39.599057293 143.0
39.603981149 145.0
39.608905005 126.0
39.613828861 126.0
39.618752717 138.0
39.623676573 149.0
39.628600429 132.0
39.633524285 122.0
39.638448141 133.0
39.643371997 134.0
39.648295853 123.0
39.653219709 129.0
39.658143565 121.0
39.663067421 113.0
39.667991277 124.0
39.672915133 140.0
39.677838989 132.0
39.682762845 124.0
39.687686701 106.0
39.692610557 121.0
39.697534413 136.0
39.702458269 112.0
39.707382125 121.0
39.712305981 119.0
39.717229837 113.0
39.722153693 126.0
39.727077549 139.0
39.732001405 112.0
39.736925261 128.0
39.741849117 132.0
39.746772973 116.0
39.751696830 145.0
39.756620686 133.0
39.761544542 107.0
39.766468398 127.0
39.771392254 124.0
39.776316110 127.0
39.781239966 100.0
39.786163822 132.0
39.791087678 136.0
39.796011534 113.0
39.800935390 128.0
39.805859246 141.0
39.810783102 131.0
39.815706958 132.0
39.820630814 145.0
39.825554670 133.0
39.830478526 155.0
39.835402382 121.0
39.840326238 123.0
39.845250094 145.0
39.850173950 119.0
39.855097806 97.0
39.860021662 139.0
39.864945518 113.0
39.869869374 133.0
39.874793230 142.0
39.879717086 110.0
39.884640942 114.0
39.889564798 123.0
39.894488654 116.0
39.899412510 125.0
39.904336366 127.0
39.909260222 107.0
39.914184078 130.0
39.919107934 149.0
39.924031790 112.0
39.928955646 137.0
39.933879502 120.0
39.938803358 120.0
39.943727214 122.0
39.948651070 122.0
39.953574926 115.0
39.958498782 128.0
39.963422638 127.0
39.968346494 123.0
39.973270350 130.0
39.978194206 121.0
39.983118062 116.0
39.988041918 115.0
39.992965774 110.0
39.997889630 115.0
